t_sec,abp_mmHg,resp_arbunit,spo2_unitless,scon_muS
0,99.06393,-2.952436,0.9896896,3.790237
0.04914269,96.77527,-2.99806,0.9898543,3.790237
0.09924831,88.5106,-3.056716,0.9898543,3.783778
0.1482591,86.60338,-3.089303,0.9896896,3.783778
0.1992365,86.22193,-3.154478,0.9898543,3.783778
0.2500128,85.96764,-3.174029,0.9898543,3.783778
0.299285,76.17719,-3.213134,0.9896896,3.783778
0.3489801,72.99847,-3.232687,0.9896896,3.783778
0.3987709,70.4555,-3.258755,0.9896896,3.783778
0.449147,69.05686,-3.29786,0.9898543,3.783778
0.5002246,67.40394,-3.343484,0.9898543,3.777318
0.5497953,64.35236,-3.402139,0.9896896,3.777318
0.5993694,63.08088,-3.454278,0.9896896,3.777318
0.648989,77.70296,-3.545523,0.9898543,3.777318
0.6986023,104.5313,-3.558557,0.9900191,3.777318
0.7496147,102.2427,-3.558557,0.9898543,3.777318
0.7997472,98.6825,-3.558557,0.9898543,3.777318
0.848246,96.39381,-3.558557,0.9896896,3.777318
0.8983492,88.63776,-3.571594,0.9898543,3.770859
0.9487507,86.98483,-3.558557,0.9896896,3.770859
1.000016,86.22193,-3.545523,0.9896896,3.770859
1.049618,86.22193,-3.539006,0.9900191,3.770859
1.099266,76.05004,-3.532487,0.9898543,3.7644
1.148835,74.14281,-3.532487,0.9898543,3.770859
1.198228,70.20119,-3.512936,0.9898543,3.7644
1.249609,68.54827,-3.499902,0.9896896,3.7644
1.299623,67.02249,-3.42821,0.9898543,3.7644
1.348649,63.84377,-3.317413,0.9898543,3.7644
1.398496,70.83694,-3.2001,0.9898543,3.7644
1.448896,70.9641,-3.037165,0.9896896,3.757941
1.499255,103.6413,-2.789501,0.9896896,3.7644
1.550361,100.9712,-2.281143,0.9898543,3.757941
1.598969,97.9196,-2.118208,0.9898543,3.757941
1.648383,93.978,-1.935719,0.9896896,3.757941
1.698902,87.11198,-1.753231,0.9898543,3.757941
1.75002,86.73053,-1.616367,0.9896896,3.757941
1.799251,86.34908,-1.4795,0.9896896,3.757941
1.848608,80.11879,-1.310048,0.9898543,3.757941
1.898382,76.05004,-1.14711,0.9898543,3.751482
1.948711,72.61702,-1.016763,0.9896896,3.757941
2.000235,71.09124,-0.8864151,0.9898543,3.751482
2.049646,69.05686,-0.8342742,0.9898543,3.751482
2.09939,67.02249,-0.8212401,0.9898543,3.751482
2.148217,67.53107,-0.8147231,0.9896896,3.751482
2.199267,93.08795,-0.8407936,0.9896896,3.751482
2.249687,103.5141,-0.8798981,0.9896896,3.745023
2.299604,101.7341,-0.9124832,0.9896896,3.751482
2.349239,97.02956,-0.9841751,0.9896896,3.745023
2.398487,93.72369,-1.010246,0.9898543,3.751482
2.448683,85.84048,-1.088455,0.9896896,3.745023
2.500239,85.84048,-1.160147,0.9898543,3.745023
2.55008,85.58618,-1.25139,0.9898543,3.745023
2.598512,80.50024,-1.336116,0.9898543,3.745023
2.649392,76.68578,-1.381739,0.9898543,3.745023
2.698735,74.01566,-1.446912,0.9896896,3.745023
2.749748,71.59984,-1.512087,0.9898543,3.738563
2.799609,68.67542,-1.583779,0.9898543,3.738563
2.849342,67.27679,-1.642435,0.9896896,3.745023
2.898859,96.26666,-1.720644,0.9898543,3.738563
2.948741,105.2942,-1.811889,0.9898543,3.745023
2.999762,104.0227,-1.896615,0.9898543,3.738563
3.050214,98.30104,-1.974824,0.9898543,3.738563
3.099251,97.15671,-2.020446,0.9898543,3.738563
3.148478,88.25631,-2.08562,0.9896896,3.738563
3.198598,86.73053,-2.124725,0.9898543,3.738563
3.24959,85.96764,-2.183381,0.9898543,3.732104
3.300215,85.58618,-2.248555,0.9896896,3.738563
3.348761,76.55863,-2.333282,0.9896896,3.732104
3.398491,74.39711,-2.626566,0.9896896,3.732104
3.448509,71.47269,-2.730846,0.9898543,3.725645
3.499908,70.70979,-2.789501,0.9898543,3.732104
3.550075,67.40394,-2.86771,0.9898543,3.732104
3.599675,64.86096,-2.952436,0.9898543,3.725645
3.649195,67.40394,-3.076269,0.9896896,3.725645
3.699219,105.4214,-3.174029,0.9896896,3.725645
3.749865,104.1499,-3.213134,0.9896896,3.732104
3.800074,100.7169,-3.239204,0.9896896,3.725645
3.84876,98.42819,-3.278309,0.9898543,3.725645
3.898724,91.81647,-3.32393,0.9898543,3.725645
3.948608,87.11198,-3.389105,0.9898543,3.725645
3.999819,86.60338,-3.682388,0.9898543,3.725645
4.049532,86.60338,-3.486865,0.9900191,3.725645
4.098527,78.08442,-2.809055,0.9898543,3.725645
4.149507,74.65141,-2.626566,0.9896896,3.725645
4.199524,72.10844,-3.037165,0.9896896,3.732104
4.250214,69.81975,-3.356518,0.9900191,3.732104
4.300497,68.16683,-3.519453,0.9898543,3.732104
4.348852,65.87814,-3.519453,0.9898543,3.732104
4.399502,62.82658,-3.42821,0.9898543,3.732104
4.449415,70.20119,-3.343484,0.9896896,3.719186
4.499979,98.9368,-3.121891,0.9898543,3.719186
4.550507,103.6413,-2.900298,0.9900191,3.712727
4.598709,99.82683,-2.567909,0.9898543,3.712727
4.648575,96.52097,-2.176863,0.9898543,3.706268
4.698858,92.57936,-1.896615,0.9900191,3.712727
4.749533,86.98483,-1.648954,0.9898543,3.712727
4.799999,86.34908,-1.577262,0.9898543,3.712727
4.848626,83.93326,-1.472983,0.9896896,3.712727
4.899254,77.44867,-1.362186,0.9896896,3.712727
4.948462,74.52426,-1.297011,0.9896896,3.712727
5.000217,72.23557,-1.127559,0.9896896,3.712727
5.049955,70.9641,-1.042833,0.9898543,3.712727
5.098961,69.05686,-0.9972116,0.9898543,3.712727
5.148371,66.00529,-1.010246,0.9896896,3.706268
5.199204,75.28716,-1.068901,0.9896896,3.712727
5.25034,103.6413,-1.081938,0.9898543,3.706268
5.299607,103.2598,-1.108006,0.9898543,3.706268
5.349127,99.95398,-1.179698,0.9896896,3.699808
5.398641,96.01237,-1.407808,0.9898543,3.699808
5.44859,93.978,-1.531638,0.9896896,3.706268
5.500071,88.63776,-1.655471,0.9896896,3.699808
5.549444,86.85767,-1.824923,0.9896896,3.699808
5.599016,86.60338,-1.96179,0.9896896,3.699808
5.648602,77.83012,-2.209451,0.9898543,3.699808
5.698366,75.66859,-3.037165,0.9896896,3.699808
5.750326,73.50706,-3.851842,0.9898543,3.699808
5.799383,71.09124,-4.470997,0.9898543,3.706268
5.849577,69.43831,-4.816421,0.9900191,3.706268
5.89851,71.47269,-4.69259,0.9898543,3.699808
5.948509,102.3698,-4.660003,0.9896896,3.706268
5.999953,104.4042,-4.490548,0.9898543,3.699808
6.050134,101.3526,-4.177712,0.9900191,3.706268
6.098725,98.55534,-4.066916,0.9898543,3.706268
6.14922,93.978,-3.975673,0.9898543,3.706268
6.199487,87.36626,-3.897464,0.9896896,3.699808
6.249733,86.98483,-3.832289,0.9900191,3.706268
6.29996,86.73053,-3.851842,0.9900191,3.706268
6.348969,78.46587,-3.858359,0.9896896,3.706268
6.399241,74.65141,-3.943085,0.9896896,3.699808
6.44945,73.63422,-4.086469,0.9898543,3.706268
6.499456,71.85413,-3.975673,0.9896896,3.699808
6.549738,70.70979,-3.773633,0.9898543,3.706268
6.59851,67.53107,-3.630249,0.9896896,3.699808
6.648574,69.05686,-3.539006,0.9898543,3.706268
6.699571,94.2323,-3.565074,0.9898543,3.706268
6.749875,104.4042,-3.604179,0.9898543,3.706268
6.799866,101.7341,-3.708458,0.9896896,3.712727
6.849452,98.6825,-3.75408,0.9898543,3.719186
6.899348,95.24948,-3.799701,0.9896896,3.719186
6.949062,87.36626,-3.643283,0.9898543,3.719186
6.9997,87.11198,-3.376069,0.9898543,3.719186
7.050236,86.60338,-3.011094,0.9900191,3.719186
7.099307,82.40748,-2.431044,0.9898543,3.719186
7.148889,74.90571,-2.05955,0.9898543,3.719186
7.19847,72.87133,-1.720644,0.9896896,3.725645
7.250202,70.07406,-1.316565,0.9898543,3.725645
7.300485,67.91252,-1.114525,0.9896896,3.732104
7.349354,65.11525,-1.016763,0.9896896,3.738563
7.398737,68.29397,-0.8994491,0.9898543,3.738563
7.449069,95.50377,-0.7299971,0.9898543,3.738563
7.500073,100.844,-0.5344746,0.9898543,3.745023
7.550709,99.82683,-0.3389497,0.9896896,3.745023
7.598495,97.15671,-0.2151192,0.9898543,3.751482
7.649368,92.45221,-0.1629807,0.9896896,3.745023
7.698988,86.22193,-0.05218424,0.9898543,3.757941
7.750355,86.22193,-0.03263319,0.9898543,3.7644
7.800569,85.58618,-0.05218424,0.9898543,3.770859
7.849492,79.99165,-0.1108422,0.9900191,3.777318
7.899231,75.28716,-0.1890512,0.9898543,3.783778
7.949244,74.52426,-0.3976077,0.9896896,3.790237
7.999824,72.74417,-0.4953701,0.9896896,3.790237
8.050438,69.05686,-0.7299971,0.9898543,3.796696
8.099092,73.25277,-1.036316,0.9896896,3.796696
8.149224,101.4798,-1.192734,0.9896896,3.796696
8.199065,103.6413,-1.37522,0.9898543,3.790237
8.250711,97.9196,-1.596813,0.9898543,3.783778
8.299607,96.64812,-1.759748,0.9898543,3.783778
8.348726,88.63776,-1.714127,0.9898543,3.783778
8.399292,86.60338,-1.675022,0.9898543,3.790237
8.44909,86.60338,-1.6294,0.9896896,3.796696
8.500564,86.60338,-1.25139,0.9898543,3.809614
8.549975,78.21156,-1.02328,0.9896896,3.816073
8.599183,75.28716,-0.6974096,0.9896896,3.828992
8.649304,72.48988,-0.9711411,0.9898543,3.84191
8.699229,68.54827,-1.27746,0.9896896,3.835451
8.750579,70.58266,-1.297011,0.9896896,3.848369
8.800492,100.844,-1.25139,0.9896896,3.848369
8.849329,104.7856,-1.081938,0.9898543,3.854828
8.899201,102.497,-1.101489,0.9896896,3.854828
8.949072,98.9368,-1.297011,0.9896896,3.861288
9.000347,96.39381,-1.414325,0.9896896,3.874206
9.049776,89.0192,-1.381739,0.9900191,3.874206
9.098919,88.12916,-1.349152,0.9898543,3.880665
9.149477,87.36626,-1.388257,0.9896896,3.887124
9.198558,82.15317,-1.440395,0.9896896,3.893583
9.249721,77.19438,-1.453429,0.9900191,3.900043
9.300215,73.25277,-1.466466,0.9898543,3.906502
9.349084,72.61702,-1.492534,0.9898543,3.912961
9.399726,69.05686,-1.518604,0.9898543,3.925879
9.448567,67.91252,-1.50557,0.9898543,3.925879
9.499681,68.29397,-1.499053,0.9898543,3.938797
9.548928,88.5106,-1.433878,0.989525,3.938797
9.599222,102.8784,-1.283977,0.9896896,3.951716
9.650097,100.2083,-1.134076,0.9898543,3.958175
9.698974,97.66531,-0.9906921,0.9898543,3.964634
9.748951,90.29069,-0.8603446,0.9896896,3.971093
9.79871,89.14634,-0.6778562,0.9898543,3.984012
9.848925,88.12916,-0.5409917,0.9898543,3.990471
9.900317,82.78893,-0.3976077,0.9898543,3.99693
9.948817,78.59301,-0.2607408,0.9898543,4.003389
9.998926,74.90571,-0.1629807,0.9896896,4.016308
10.04959,72.99847,-0.05870125,0.9900191,4.016308
10.09976,71.47269,-4.570812e-05,0.9898543,4.029226
10.15005,67.91252,0.03254177,0.9898543,4.035685
10.19974,71.09124,0.05861224,0.9896896,4.048604
10.24925,88.5106,0.07816329,0.9898543,4.055062
10.29908,102.8784,0.09119972,0.9898543,4.061522
10.34946,101.7341,0.1107508,0.9896896,4.067981
10.40032,99.06393,0.1107508,0.9898543,4.080899
10.44863,97.15671,0.0846827,0.9898543,4.087358
10.49893,90.16354,0.01950774,0.9900191,4.093818
10.54969,87.62056,-0.06521826,0.9896896,4.106736
10.59935,87.49342,-0.1825318,0.9896896,4.106736
10.64968,82.78893,-0.2737772,0.9900191,4.119654
10.69868,78.46587,-0.3845737,0.9898543,4.119654
10.74897,75.66859,-0.4758167,0.9898543,4.132572
10.79869,73.37991,-0.5670597,0.9898543,4.139032
10.84923,71.34554,-0.6713392,0.9898543,4.145491
10.90079,69.05686,-0.7430311,0.9896896,4.15195
10.94885,73.76136,-0.8407936,0.9896896,4.158409
10.99962,102.1155,-0.8929321,0.9898543,4.164868
11.04867,102.3698,-0.9320366,0.9898543,4.164868
11.09919,100.2083,-0.9711411,0.9898543,4.171328
11.14968,97.79247,-1.02328,0.9898543,4.177787
11.1989,89.5278,-1.075421,0.9896896,4.190705
11.24873,88.25631,-1.108006,0.9898543,4.190705
11.29871,88.25631,-1.127559,0.9896896,4.190705
11.34918,88.25631,-1.140593,0.9898543,4.197164
11.40034,79.22876,-1.160147,0.9898543,4.203623
11.44974,76.30434,-1.199251,0.9898543,4.203623
11.49921,74.14281,-1.212285,0.9898543,4.210082
11.54942,71.72699,-1.257907,0.9898543,4.210082
11.59969,69.43831,-1.310048,0.9898543,4.216542
11.64991,66.64104,-1.336116,0.9900191,4.223001
11.69868,72.48988,-1.37522,0.9896896,4.22946
11.74879,72.61702,-1.394774,0.9896896,4.235919
11.79958,103.2598,-1.401291,0.9896896,4.235919
11.84869,100.9712,-1.394774,0.9898543,4.242378
11.90071,99.82683,-1.401291,0.9898543,4.242378
11.94867,93.978,-1.414325,0.9896896,4.248837
11.99885,89.0192,-1.433878,0.9896896,4.255297
12.04891,88.63776,-1.433878,0.9898543,4.255297
12.0996,87.74771,-1.440395,0.9896896,4.255297
12.14992,81.64457,-1.453429,0.9898543,4.268215
12.19871,77.44867,-1.453429,0.9896896,4.261755
12.2487,75.03284,-1.459949,0.9898543,4.268215
12.29968,71.34554,-1.486017,0.9896896,4.268215
12.34932,69.94691,-1.492534,0.9896896,4.274674
12.40067,67.53107,-1.531638,0.9898543,4.274674
12.44932,66.64104,-1.551192,0.9898543,4.274674
12.49959,65.24241,-1.564226,0.9898543,4.281133
12.54919,70.20119,-1.570743,0.9896896,4.281133
12.59954,98.80965,-1.544675,0.9896896,4.281133
12.65093,104.1499,-1.453429,0.9898543,4.281133
12.69892,101.7341,-1.297011,0.9898543,4.281133
12.74954,99.69969,-1.14711,0.9896896,4.281133
12.79907,97.15671,-1.010246,0.9898543,4.281133
12.84869,88.7649,-0.9124832,0.9898543,4.287592
12.90055,88.38345,-0.7430311,0.9898543,4.287592
12.94929,87.74771,-0.5931302,0.9898543,4.287592
12.9993,81.26313,-0.4562656,0.9898543,4.287592
13.04942,77.83012,-0.3454692,0.9898543,4.287592
13.09975,73.88851,-0.2477067,0.9896896,4.287592
13.1497,71.59984,-0.1173592,0.9896896,4.294052
13.1993,69.56546,-0.04566722,0.9896896,4.294052
13.24941,67.53107,-0.006562723,0.9898543,4.294052
13.29968,66.38674,0.006473713,0.9896896,4.294052
13.34915,63.84377,-4.570812e-05,0.9896896,4.294052
13.4003,62.31799,0.006473713,0.9896896,4.294052
13.44909,63.97092,-0.01307974,0.9900191,4.30051
13.49929,92.07076,-0.0391502,0.9898543,4.294052
13.54978,101.9884,-0.0782547,0.9898543,4.30051
13.59984,97.9196,-0.1629807,0.9896896,4.30051
13.65059,96.26666,-0.2607408,0.9898543,4.30051
13.69894,90.16354,-0.3650202,0.9900191,4.30051
13.74969,86.22193,-0.4432292,0.9896896,4.30051
13.79993,86.22193,-0.5214382,0.9898543,4.30697
13.84891,83.04321,-0.5996472,0.9898543,4.30697
13.90014,78.21156,-0.6778562,0.9896896,4.30051
13.94967,74.14281,-0.7886527,0.9896896,4.30697
13.99915,71.85413,-0.8473106,0.9896896,4.30697
14.04994,70.4555,-0.9450706,0.9898543,4.30697
14.09994,68.16683,-1.029797,0.9898543,4.313429
14.1503,65.4967,-1.081938,0.9898543,4.313429
14.19932,74.14281,-1.140593,0.9898543,4.313429
14.24964,103.5141,-1.225322,0.9898543,4.313429
14.29956,103.387,-1.303531,0.9898543,4.319888
14.34916,99.82683,-1.336116,0.9898543,4.319888
14.40091,96.77527,-1.401291,0.9898543,4.319888
14.44958,94.2323,-1.433878,0.9898543,4.319888
14.49935,86.98483,-1.4795,0.9898543,4.319888
14.54932,85.84048,-1.499053,0.9898543,4.319888
14.59992,85.84048,-1.525121,0.9898543,4.319888
14.65067,80.75454,-1.538157,0.9896896,4.326347
14.69957,74.90571,-1.557709,0.9898543,4.326347
14.74997,71.34554,-1.609849,0.9896896,4.326347
14.79946,68.29397,-1.616367,0.9896896,4.326347
14.84908,67.40394,-1.655471,0.9900191,4.326347
14.9009,65.4967,-1.688058,0.9898543,4.326347
14.94972,62.69943,-1.714127,0.9896896,4.326347
14.99984,65.87814,-1.740197,0.9898543,4.326347
15.04972,94.99519,-1.766268,0.9898543,4.319888
15.09894,102.8784,-1.779302,0.9896896,4.326347
15.15009,100.5897,-1.772784,0.9898543,4.326347
15.1999,97.02956,-1.772784,0.9898543,4.326347
15.24959,95.63092,-1.772784,0.9898543,4.326347
15.29992,87.74771,-1.772784,0.9898543,4.326347
15.34971,87.11198,-1.759748,0.9896896,4.326347
15.4007,86.09478,-1.753231,0.9898543,4.326347
15.44914,82.15317,-1.740197,0.9898543,4.326347
15.49958,79.73734,-1.720644,0.9898543,4.326347
15.54969,72.23557,-1.668505,0.9898543,4.326347
15.59928,69.43831,-1.544675,0.9896896,4.326347
15.65081,68.29397,-1.414325,0.9898543,4.326347
15.69915,66.25959,-1.231839,0.9898543,4.326347
15.75046,63.46233,-1.081938,0.9898543,4.326347
15.79954,65.4967,-0.9450706,0.9896896,4.319888
15.84894,94.48659,-0.8342742,0.9898543,4.319888
15.90008,104.277,-0.6713392,0.9898543,4.326347
15.94989,101.7341,-0.5279552,0.9898543,4.319888
16.00045,97.9196,-0.3976077,0.9896896,4.319888
16.04913,96.01237,-0.2933282,0.9898543,4.326347
16.0992,89.0192,-0.2086022,0.9898543,4.319888
16.15002,86.98483,-0.1303932,0.9900191,4.319888
16.19918,86.98483,-0.07173768,0.9896896,4.319888
16.25032,82.66177,-0.03263319,0.9898543,4.319888
16.29893,76.81293,-0.01959675,0.9896896,4.319888
16.34994,74.26996,-0.01307974,0.9896896,4.319888
16.40106,71.72699,-0.01959675,0.9896896,4.313429
16.44989,70.9641,-0.03263319,0.9896896,4.313429
16.50012,69.05686,-0.05870125,0.9896896,4.313429
16.54939,70.32835,-0.1369102,0.9898543,4.313429
16.5998,87.49342,-0.2020852,0.9898543,4.30697
16.65026,104.4042,-0.2737772,0.9898543,4.313429
16.69927,99.06393,-0.3389497,0.9896896,4.30697
16.7508,97.53816,-0.4236782,0.9898543,4.30697
16.80004,93.2151,-0.4823337,0.9898543,4.30697
16.84926,86.98483,-0.5540257,0.9898543,4.30697
16.90026,86.73053,-0.6061642,0.9896896,4.30697
16.94957,86.73053,-0.6517881,0.9896896,4.30051
16.99991,80.75454,-0.7039266,0.9896896,4.30051
17.04915,76.55863,-0.7625822,0.9900191,4.30051
17.09955,74.01566,-0.8016891,0.9898543,4.30051
17.15042,71.47269,-0.8603446,0.9898543,4.294052
17.19938,69.81975,-0.9124832,0.9898543,4.294052
17.25002,67.78539,-0.9711411,0.9900191,4.294052
17.29955,79.3559,-1.02328,0.9898543,4.294052
17.34902,104.1499,-1.062384,0.9898543,4.287592
17.40072,104.0227,-1.088455,0.9898543,4.287592
17.44976,97.9196,-1.114525,0.9898543,4.287592
17.50045,96.39381,-1.173181,0.9900191,4.287592
17.54905,90.54498,-1.244873,0.9898543,4.281133
17.59917,87.49342,-1.270943,0.9898543,4.281133
17.65044,86.73053,-1.303531,0.9900191,4.281133
17.69918,82.78893,-1.323082,0.9900191,4.274674
17.75039,76.05004,-1.355669,0.9898543,4.274674
17.7993,75.03284,-1.381739,0.9898543,4.274674
17.84969,71.47269,-1.401291,0.9900191,4.274674
17.9006,70.32835,-1.453429,0.9896896,4.274674
17.94907,68.67542,-1.50557,0.9898543,4.268215
18.00067,65.4967,-1.50557,0.9900191,4.268215
18.04988,85.45904,-1.557709,0.9898543,4.268215
18.09919,104.277,-1.583779,0.9898543,4.261755
18.15026,103.0055,-1.616367,0.9898543,4.261755
18.1998,100.2083,-1.60333,0.9898543,4.255297
18.25026,98.30104,-1.655471,0.9898543,4.255297
18.30013,92.83366,-1.655471,0.9898543,4.255297
18.35001,88.63776,-1.675022,0.9898543,4.248837
18.40089,87.74771,-1.675022,0.9896896,4.248837
18.44913,87.36626,-1.675022,0.9898543,4.248837
18.50115,80.88168,-1.681539,0.9898543,4.242378
18.54917,77.19438,-1.681539,0.9896896,4.242378
18.59988,73.76136,-1.681539,0.9898543,4.242378
18.65089,71.98129,-1.681539,0.9898543,4.242378
18.6995,69.94691,-1.655471,0.9898543,4.235919
18.75066,67.65823,-1.596813,0.9898543,4.235919
18.7995,65.4967,-1.486017,0.9896896,4.235919
18.84967,86.22193,-1.342635,0.9900191,4.235919
18.90116,104.277,-1.166664,0.9898543,4.235919
18.94989,102.1155,-0.9972116,0.9896896,4.235919
19.00025,99.06393,-0.8864151,0.9898543,4.235919
19.04925,97.53816,-0.7430311,0.9898543,4.22946
19.0995,92.45221,-0.6061642,0.9896896,4.22946
19.15013,89.40065,-0.4758167,0.9898543,4.22946
19.19937,88.63776,-0.3715372,0.9898543,4.22946
19.25041,84.69615,-0.2868112,0.9898543,4.22946
19.29979,79.73734,-0.2216363,0.9896896,4.22946
19.34929,76.55863,-0.1499467,0.9898543,4.22946
19.40014,75.28716,-0.09780575,0.9896896,4.22946
19.44919,72.87133,-0.08477172,0.9900191,4.22946
19.5009,71.98129,-0.09780575,0.9898543,4.22946
19.54912,69.43831,-0.1108422,0.9898543,4.223001
19.59953,69.18401,-0.1434273,0.9896896,4.22946
19.65042,84.3147,-0.1890512,0.9898543,4.22946
19.69925,102.8784,-0.2346727,0.9896896,4.22946
19.75114,100.2083,-0.2998452,0.9898543,4.22946
19.80019,97.53816,-0.3845737,0.9896896,4.22946
19.84991,93.978,-0.4692997,0.9898543,4.22946
19.90018,89.78209,-0.5409917,0.9898543,4.22946
19.94986,88.63776,-0.6192006,0.9898543,4.22946
20.00031,88.5106,-0.7039266,0.9898543,4.22946
20.0495,82.02603,-0.8147231,0.9900191,4.22946
20.0999,78.08442,-0.8733787,0.9900191,4.22946
20.15072,75.28716,-0.9124832,0.9896896,4.22946
20.20015,73.63422,-0.9841751,0.9898543,4.22946
20.25118,71.09124,-1.04935,0.9898543,4.22946
20.3,69.05686,-1.081938,0.9898543,4.22946
20.34941,78.46587,-1.114525,0.9898543,4.22946
20.401,102.6241,-1.179698,0.9898543,4.22946
20.44907,102.497,-1.244873,0.9900191,4.22946
20.50015,100.844,-1.283977,0.9900191,4.22946
20.54912,98.30104,-1.342635,0.9898543,4.22946
20.5995,90.92643,-1.37522,0.9898543,4.223001
20.65052,88.63776,-1.401291,0.9900191,4.22946
20.69963,87.36626,-1.427361,0.9898543,4.223001
20.75116,87.49342,-1.446912,0.9898543,4.223001
20.79969,79.99165,-1.459949,0.9900191,4.223001
20.84951,75.54144,-1.472983,0.9900191,4.223001
20.90099,73.37991,-1.492534,0.9898543,4.223001
20.95006,71.72699,-1.50557,0.9900191,4.223001
21.00106,70.20119,-1.544675,0.9896896,4.216542
21.04961,68.16683,-1.60333,0.9898543,4.216542
21.09941,65.11525,-1.583779,0.9898543,4.216542
21.15026,67.02249,-1.668505,0.9898543,4.216542
21.20018,99.31824,-1.681539,0.9896896,4.210082
21.25115,101.7341,-1.694576,0.9898543,4.210082
21.29911,99.06393,-1.694576,0.9898543,4.210082
21.3499,97.9196,-1.70761,0.9898543,4.210082
21.40125,94.35944,-1.714127,0.9898543,4.210082
21.44916,89.40065,-1.727163,0.9900191,4.210082
21.50062,88.25631,-1.714127,0.9898543,4.210082
21.54936,87.74771,-1.70761,0.9896896,4.203623
21.60015,80.50024,-1.694576,0.9900191,4.203623
21.65086,77.32152,-1.668505,0.9898543,4.203623
21.70003,71.85413,-1.622884,0.9898543,4.203623
21.75017,71.09124,-1.538157,0.9900191,4.203623
21.7998,68.67542,-1.388257,0.9898543,4.197164
21.85011,66.76819,-1.231839,0.9900191,4.197164
21.90087,64.86096,-1.062384,0.9900191,4.197164
21.95015,64.73381,-0.9450706,0.9898543,4.197164
22.00029,79.99165,-0.8147231,0.9898543,4.197164
22.05013,102.1155,-0.6192006,0.9900191,4.190705
22.09962,99.44539,-0.4562656,0.9898543,4.190705
22.15091,97.66531,-0.3128817,0.9898543,4.190705
22.19999,96.01237,-0.2020852,0.9898543,4.184246
22.25061,89.5278,-0.06521826,0.9898543,4.190705
22.29991,87.36626,-0.006562723,0.9898543,4.184246
22.35013,86.60338,0.03905879,0.9900191,4.184246
22.40061,84.0604,0.07816329,0.9898543,4.184246
22.44911,79.73734,0.09771673,0.9900191,4.184246
22.5008,77.70296,0.09119972,0.9898543,4.177787
22.54912,72.61702,0.09119972,0.9898543,4.177787
22.59961,71.47269,0.07164627,0.9898543,4.177787
22.6505,69.43831,0.01950774,0.9900191,4.177787
22.69963,67.02249,-0.0391502,0.9896896,4.171328
22.75049,72.61702,-0.1629807,0.9898543,4.171328
22.79953,99.69969,-0.2411897,0.9900191,4.171328
22.85014,100.2083,-0.3193987,0.9898543,4.164868
22.90114,97.53816,-0.3780542,0.9898543,4.164868
22.94988,95.63092,-0.4562656,0.9898543,4.164868
23.0005,90.16354,-0.5344746,0.9898543,4.164868
23.04976,86.34908,-0.5931302,0.9898543,4.158409
23.10037,86.22193,-0.6517881,0.9898543,4.164868
23.15115,86.34908,-0.7169607,0.9900191,4.158409
23.19925,78.08442,-0.7886527,0.9898543,4.158409
23.25123,74.14281,-0.8342742,0.9898543,4.158409
23.29924,72.23557,-0.8864151,0.9900191,4.15195
23.34989,70.32835,-0.9581071,0.9900191,4.15195
23.40092,67.78539,-1.02328,0.9898543,4.15195
23.44935,67.40394,-1.055867,0.9898543,4.145491
23.50085,67.53107,-1.127559,0.9898543,4.15195
23.54952,92.07076,-1.225322,0.9898543,4.145491
23.59977,100.9712,-1.264426,0.9898543,4.145491
23.65064,97.02956,-1.303531,0.9900191,4.145491
23.6999,96.01237,-1.342635,0.9898543,4.145491
23.75041,88.7649,-1.368703,0.9898543,4.145491
23.79959,86.73053,-1.394774,0.9898543,4.139032
23.84925,86.34908,-1.420844,0.9898543,4.139032
23.90103,81.89888,-1.427361,0.9898543,4.139032
23.94939,76.94007,-1.440395,0.9898543,4.139032
24.00112,73.25277,-1.453429,0.9898543,4.139032
24.05035,70.58266,-1.459949,0.9900191,4.139032
24.10011,70.32835,-1.492534,0.9898543,4.132572
24.15085,67.40394,-1.525121,0.9898543,4.132572
24.20039,64.35236,-1.544675,0.9900191,4.132572
24.25099,65.11525,-1.583779,0.9898543,4.132572
24.29967,100.3354,-1.616367,0.9898543,4.126113
24.34996,102.2427,-1.648954,0.9898543,4.132572
24.4004,99.44539,-1.6294,0.9898543,4.132572
24.45039,97.28386,-1.648954,0.9898543,4.132572
24.50137,94.86804,-1.648954,0.9898543,4.126113
24.54926,88.38345,-1.688058,0.9898543,4.126113
24.5996,88.25631,-1.668505,0.9896896,4.126113
24.65063,87.62056,-1.661988,0.9898543,4.126113
24.70041,79.73734,-1.655471,0.9898543,4.126113
24.7506,75.92289,-1.655471,0.9798071,4.126113
24.80024,72.48988,-1.642435,0.9799718,4.126113
24.84966,70.70979,-1.577262,0.9799718,4.119654
24.9006,68.42112,-1.50557,0.9798071,4.119654
24.94922,67.53107,-1.414325,0.9799718,4.119654
25.00087,63.84377,-1.25139,0.9798071,4.119654
25.04985,70.4555,-1.094972,0.9799718,4.119654
25.09923,70.4555,-0.9841751,0.9799718,4.119654
25.15123,102.6241,-0.8668616,0.9798071,4.119654
25.19947,99.31824,-0.7365142,0.9799718,4.113195
25.25035,98.30104,-0.5931302,0.9798071,4.113195
25.29964,96.26666,-0.5018871,0.9799718,4.119654
25.35002,88.00201,-0.4041247,0.9798071,4.113195
25.40052,87.36626,-0.3193987,0.9798071,4.113195
25.45046,87.36626,-0.2737772,0.9799718,4.113195
25.501,82.28033,-0.2346727,0.9799718,4.113195
25.54946,76.17719,-0.1955682,0.9799718,4.113195
25.59935,74.39711,-0.1825318,0.9799718,4.113195
25.65061,71.34554,-0.1955682,0.9799718,4.106736
25.69997,70.20119,-0.2086022,0.9798071,4.106736
25.75084,67.78539,-0.2542237,0.9798071,4.106736
25.8,67.02249,-0.2998452,0.9798071,4.106736
25.84934,76.05004,-0.3715372,0.9799718,4.106736
25.90051,102.1155,-0.4627827,0.9799718,4.106736
25.95035,101.3526,-0.5149212,0.9798071,4.100276
26.00109,97.79247,-0.5735791,0.9798071,4.106736
26.04959,96.26666,-0.6387517,0.9799718,4.100276
26.09961,87.49342,-0.7756186,0.9799718,4.100276
26.15113,86.22193,-0.8277572,0.9798071,4.100276
26.19983,86.22193,-0.8668616,0.9798071,4.093818
26.25147,81.13599,-0.8994491,0.9798071,4.100276
26.29971,75.66859,-0.9320366,0.9799718,4.093818
26.34984,72.99847,-0.9385536,0.9798071,4.093818
26.40085,71.34554,-0.9841751,0.9798071,4.093818
26.45017,69.43831,-1.042833,0.9798071,4.093818
26.50095,67.02249,-1.081938,0.9799718,4.093818
26.54934,68.54827,-1.114525,0.9799718,4.093818
26.60035,86.34908,-1.140593,0.9798071,4.087358
26.65035,99.44539,-1.192734,0.9799718,4.087358
26.69987,99.69969,-1.218802,0.9798071,4.087358
26.7506,95.63092,-1.257907,0.9798071,4.087358
26.79984,93.72369,-1.27746,0.9798071,4.087358
26.84961,86.09478,-1.310048,0.9799718,4.087358
26.9006,85.45904,-1.316565,0.9799718,4.087358
26.9501,85.07759,-1.329599,0.9799718,4.080899
27.0014,79.86449,-1.336116,0.9799718,4.080899
27.05,74.65141,-1.349152,0.9799718,4.080899
27.0997,71.85413,-1.368703,0.9799718,4.080899
27.15088,69.43831,-1.388257,0.9798071,4.080899
27.19938,67.78539,-1.427361,0.9798071,4.07444
27.25152,66.13245,-1.466466,0.9799718,4.07444
27.29994,63.08088,-1.4795,0.9798071,4.07444
27.34963,72.87133,-1.518604,0.9799718,4.07444
27.40136,102.2427,-1.544675,0.9798071,4.07444
27.45021,101.7341,-1.570743,0.9798071,4.067981
27.50065,101.4798,-1.564226,0.9798071,4.067981
27.55008,96.77527,-1.596813,0.9798071,4.067981
27.59961,93.2151,-1.616367,0.9798071,4.067981
27.65038,86.34908,-1.635918,0.9799718,4.067981
27.70022,86.22193,-1.635918,0.9799718,4.061522
27.75121,86.22193,-1.6294,0.9799718,4.061522
27.79983,77.70296,-1.6294,0.9799718,4.061522
27.85033,73.76136,-1.6294,0.9799718,4.061522
27.90097,71.47269,-1.635918,0.9799718,4.055062
27.94983,69.05686,-1.635918,0.9799718,4.055062
28.0006,67.78539,-1.642435,0.9798071,4.061522
28.05021,65.87814,-1.635918,0.9799718,4.055062
28.10023,63.46233,-1.596813,0.9798071,4.055062
28.15112,62.19084,-1.512087,0.9798071,4.055062
28.20021,68.67542,-1.440395,0.9798071,4.055062
28.2515,101.8612,-1.303531,0.9798071,4.055062
28.29995,100.0811,-1.114525,0.9798071,4.055062
28.35002,97.53816,-0.9841751,0.9798071,4.048604
28.40164,94.86804,-0.8929321,0.9799718,4.048604
28.44982,91.30788,-0.7886527,0.9799718,4.048604
28.50134,88.7649,-0.6322347,0.9798071,4.048604
28.54983,86.85767,-0.5344746,0.9798071,4.048604
28.59947,84.3147,-0.4432292,0.9798071,4.042144
28.65145,78.08442,-0.3519862,0.9799718,4.042144
28.70011,75.41429,-0.2933282,0.9799718,4.042144
28.75137,71.98129,-0.2607408,0.9798071,4.042144
28.80035,69.81975,-0.2281557,0.9799718,4.042144
28.84964,68.54827,-0.2020852,0.9799718,4.035685
28.90137,66.89534,-0.1955682,0.9798071,4.035685
28.95008,64.35236,-0.2020852,0.9799718,4.029226
29.00058,78.84731,-0.2346727,0.9798071,4.035685
29.04959,95.12233,-0.2933282,0.9799718,4.029226
29.09983,99.44539,-0.3454692,0.9798071,4.029226
29.15124,96.52097,-0.4432292,0.9798071,4.029226
29.20025,95.50377,-0.5344746,0.9798071,4.029226
29.25133,86.85767,-0.6257176,0.9798071,4.029226
29.30013,85.58618,-0.7104437,0.9798071,4.022767
29.35025,85.07759,-0.8016891,0.9798071,4.022767
29.40144,84.82329,-0.8342742,0.9798071,4.022767
29.44987,78.46587,-0.8798981,0.9799718,4.022767
29.50084,75.66859,-0.9124832,0.9799718,4.022767
29.54958,71.47269,-0.9450706,0.9799718,4.016308
29.59949,69.94691,-0.9972116,0.9799718,4.016308
29.65113,67.27679,-1.068901,0.9798071,4.016308
29.7,65.11525,-1.108006,0.9798071,4.016308
29.75061,78.72016,-1.15363,0.9798071,4.016308
29.80031,102.8784,-1.199251,0.9798071,4.009848
29.85048,101.9884,-1.244873,0.9798071,4.009848
29.90044,98.1739,-1.270943,0.9799718,4.009848
29.94983,96.39381,-1.310048,0.9799718,4.009848
30.00133,90.16354,-1.336116,0.9798071,4.003389
30.05048,85.96764,-1.355669,0.9799718,4.003389
30.10006,85.58618,-1.37522,0.9798071,4.003389
30.15057,85.84048,-1.407808,0.9799718,4.003389
30.19993,78.59301,-1.420844,0.9798071,4.003389
30.25083,74.90571,-1.433878,0.9799718,4.003389
30.30019,71.34554,-1.446912,0.9798071,3.99693
30.35007,68.67542,-1.4795,0.9798071,3.99693
30.40119,67.65823,-1.525121,0.9798071,3.99693
30.44982,65.4967,-1.596813,0.9799718,3.99693
30.50147,63.20802,-1.609849,0.9799718,3.990471
30.55057,89.14634,-1.668505,0.9798071,3.990471
30.60007,103.6413,-1.688058,0.9799718,3.990471
30.65111,101.6069,-1.688058,0.9798071,3.990471
30.70057,97.9196,-1.688058,0.9801366,3.990471
30.75084,95.88522,-1.70761,0.9798071,3.984012
30.79982,90.67213,-1.714127,0.9798071,3.984012
30.84984,86.22193,-1.70761,0.9799718,3.984012
30.90072,86.34908,-1.694576,0.9799718,3.984012
30.94958,85.84048,-1.681539,0.9798071,3.984012
31.00057,78.72016,-1.681539,0.9798071,3.984012
31.04972,75.28716,-1.661988,0.9799718,3.977553
31.09957,71.72699,-1.590296,0.9799718,3.977553
31.15132,69.56546,-1.492534,0.9799718,3.977553
31.19985,67.53107,-1.394774,0.9798071,3.977553
31.25146,65.24241,-1.173181,0.9798071,3.977553
31.29986,67.53107,-1.02328,0.9798071,3.977553
31.34956,94.35944,-0.8864151,0.9798071,3.971093
31.40105,101.6069,-0.7756186,0.9798071,3.971093
31.45045,99.31824,-0.5996472,0.9799718,3.971093
31.50094,98.04675,-0.4823337,0.9799718,3.971093
31.54962,93.978,-0.3650202,0.9798071,3.964634
31.60009,88.25631,-0.2868112,0.9799718,3.971093
31.65082,87.87486,-0.2281557,0.9798071,3.964634
31.69994,87.11198,-0.1303932,0.9798071,3.964634
31.75131,78.33871,-0.08477172,0.9798071,3.964634
31.79958,77.32152,-0.05870125,0.9799718,3.964634
31.85006,73.76136,-0.05218424,0.9799718,3.958175
31.90158,71.72699,-0.05870125,0.9799718,3.958175
31.95045,69.56546,-0.07173768,0.9798071,3.958175
32.00169,68.16683,-0.1173592,0.9798071,3.958175
32.04993,77.70296,-0.1564637,0.9798071,3.958175
32.09985,101.6069,-0.2086022,0.9798071,3.951716
32.15084,100.4626,-0.2672602,0.9799718,3.958175
32.19983,97.9196,-0.3193987,0.9799718,3.951716
32.25138,94.99519,-0.3780542,0.9798071,3.958175
32.2996,89.0192,-0.4497462,0.9798071,3.951716
32.34981,86.98483,-0.4953701,0.9798071,3.951716
32.40059,86.73053,-0.5409917,0.9798071,3.951716
32.44971,86.60338,-0.5866132,0.9798071,3.945257
32.50056,79.86449,-0.6257176,0.9798071,3.945257
32.55022,76.55863,-0.7169607,0.9798071,3.945257
32.60056,72.61702,-0.7756186,0.9798071,3.945257
32.65081,70.58266,-0.8342742,0.9799718,3.945257
32.70049,68.80257,-0.8798981,0.9798071,3.938797
32.75106,88.5106,-0.9711411,0.9799718,3.945257
32.80045,103.1327,-1.016763,0.9798071,3.938797
32.85018,101.7341,-1.036316,0.9798071,3.938797
32.90145,99.82683,-1.075421,0.9799718,3.938797
32.95045,96.26666,-1.101489,0.9799718,3.938797
33.00146,89.78209,-1.134076,0.9798071,3.938797
33.05032,88.12916,-1.160147,0.9799718,3.932338
33.09984,87.87486,-1.173181,0.9799718,3.938797
33.15146,84.18755,-1.199251,0.9798071,3.932338
33.19971,79.10161,-1.231839,0.9799718,3.932338
33.25168,75.92289,-1.25139,0.9798071,3.932338
33.30018,74.01566,-1.27746,0.9799718,3.932338
33.35012,72.23557,-1.303531,0.9798071,3.932338
33.40107,68.92972,-1.342635,0.9798071,3.932338
33.45036,67.53107,-1.362186,0.9798071,3.932338
33.50182,67.53107,-1.414325,0.9798071,3.925879
33.5498,92.83366,-1.433878,0.9798071,3.932338
33.59985,101.3526,-1.446912,0.9798071,3.925879
33.65104,99.06393,-1.446912,0.9799718,3.925879
33.69984,97.53816,-1.466466,0.9798071,3.925879
33.7508,91.43503,-1.486017,0.9798071,3.925879
33.79984,89.78209,-1.492534,0.9798071,3.91942
33.84983,89.0192,-1.492534,0.9799718,3.925879
33.90179,84.82329,-1.499053,0.9799718,3.91942
33.94973,80.37309,-1.50557,0.9798071,3.925879
34.00157,75.92289,-1.512087,0.9798071,3.91942
34.04984,72.99847,-1.518604,0.9799718,3.925879
34.09984,71.72699,-1.525121,0.9799718,3.91942
34.15136,69.81975,-1.557709,0.9799718,3.91942
34.20061,67.91252,-1.570743,0.9798071,3.91942
34.2508,64.98811,-1.583779,0.9798071,3.91942
34.30059,80.11879,-1.609849,0.9798071,3.91942
34.3498,103.2598,-1.622884,0.9799718,3.912961
34.40067,101.8612,-1.616367,0.9798071,3.912961
34.45008,99.82683,-1.538157,0.9799718,3.912961
34.50084,98.04675,-1.427361,0.9799718,3.912961
34.55033,95.75809,-1.225322,0.9799718,3.912961
34.6002,90.03638,-1.010246,0.9798071,3.912961
34.65156,87.74771,-0.8082061,0.9798071,3.912961
34.6998,88.12916,-0.6257176,0.9798071,3.906502
34.75083,79.99165,-0.4171611,0.9798071,3.906502
34.80086,76.68578,-0.2020852,0.9798071,3.906502
34.85043,73.88851,-0.03263319,0.9798071,3.906502
34.9008,71.47269,0.09771673,0.9799718,3.906502
34.95071,69.81975,0.1889598,0.9798071,3.906502
35.00069,68.80257,0.2671688,0.9798071,3.900043
35.05019,66.38674,0.3258267,0.9799718,3.906502
35.10079,65.36956,0.4105527,0.9799718,3.906502
35.15143,70.58266,0.4301062,0.9799718,3.900043
35.20083,99.69969,0.4757277,0.9798071,3.900043
35.25149,99.82683,0.5148298,0.9799718,3.900043
35.3006,97.28386,0.5278686,0.9798071,3.900043
35.35018,96.01237,0.5278686,0.9798071,3.900043
35.40117,87.87486,0.5278686,0.9799718,3.900043
35.45087,87.49342,0.5213492,0.9799718,3.893583
35.50179,86.85767,0.5083151,0.9799718,3.893583
35.5503,87.36626,0.4822447,0.9799718,3.893583
35.60048,77.70296,0.4235868,0.9799718,3.900043
35.65118,75.41429,0.3844822,0.9799718,3.893583
35.70006,72.99847,0.3518948,0.9798071,3.893583
35.75103,70.70979,0.3062733,0.9898543,3.893583
35.80081,68.42112,0.2476177,0.9898543,3.887124
35.85031,69.81975,0.1824427,0.9898543,3.893583
35.90183,98.42819,0.1172678,0.9900191,3.887124
35.94983,101.6069,0.03905879,0.9898543,3.887124
36.0011,97.79247,-0.01307974,0.9900191,3.887124
36.05056,96.01237,-0.1108422,0.9898543,3.887124
36.10074,91.68932,-0.1825318,0.9896896,3.887124
36.15157,87.36626,-0.2737772,0.9898543,3.887124
36.20079,86.98483,-0.3585032,0.9898543,3.887124
36.25179,87.11198,-0.4562656,0.9898543,3.880665
36.30016,80.75454,-0.5344746,0.9900191,3.880665
36.35021,76.17719,-0.6061642,0.9898543,3.880665
36.40123,74.14281,-0.7299971,0.9896896,3.880665
36.44985,72.10844,-0.8016891,0.9900191,3.880665
36.50084,69.81975,-0.8864151,0.9898543,3.880665
36.55017,66.76819,-0.9450706,0.9898543,3.880665
36.60054,86.73053,-1.042833,0.9898543,3.880665
36.65156,102.1155,-1.108006,0.9898543,3.874206
36.70004,101.2255,-1.166664,0.9898543,3.880665
36.75159,97.53816,-1.238356,0.9898543,3.874206
36.80005,96.01237,-1.297011,0.9898543,3.880665
36.84995,90.16354,-1.342635,0.9898543,3.874206
36.90155,86.60338,-1.381739,0.9900191,3.874206
36.95045,86.34908,-1.407808,0.9898543,3.874206
37.00153,85.84048,-1.420844,0.9896896,3.874206
37.05003,76.94007,-1.440395,0.9898543,3.874206
37.10067,74.52426,-1.4795,0.9898543,3.867747
37.15157,71.09124,-1.492534,0.9898543,3.874206
37.2007,69.31116,-1.551192,0.9898543,3.874206
37.25147,67.14964,-1.590296,0.9898543,3.867747
37.30095,64.73381,-1.60333,0.9898543,3.867747
37.3504,69.94691,-1.648954,0.9898543,3.867747
37.40178,95.63092,-1.681539,0.9898543,3.861288
37.45053,101.4798,-1.70761,0.9898543,3.867747
37.50141,100.3354,-1.681539,0.9900191,3.867747
37.55027,97.02956,-1.694576,0.9900191,3.867747
37.6003,92.83366,-1.701092,0.9898543,3.861288
37.65155,88.00201,-1.714127,0.9898543,3.861288
37.70058,87.87486,-1.694576,0.9900191,3.861288
37.75119,82.28033,-1.688058,0.9898543,3.861288
37.80082,79.22876,-1.675022,0.9898543,3.861288
37.85031,75.41429,-1.635918,0.9898543,3.861288
37.90156,72.23557,-1.544675,0.9898543,3.861288
37.95054,69.43831,-1.427361,0.9898543,3.854828
38.00157,67.53107,-1.283977,0.9898543,3.861288
38.05035,66.25959,-1.088455,0.9900191,3.861288
38.10103,63.58947,-0.9711411,0.9898543,3.854828
38.15171,62.31799,-0.8473106,0.9898543,3.854828
38.20035,84.18755,-0.7625822,0.9898543,3.861288
38.25195,102.6241,-0.5931302,0.9898543,3.854828
38.30103,99.95398,-0.4888507,0.9898543,3.854828
38.35106,97.66531,-0.3650202,0.9898543,3.854828
38.40183,96.01237,-0.2802942,0.9896896,3.854828
38.45103,90.03638,-0.2086022,0.9898543,3.854828
38.50109,88.63776,-0.1499467,0.9898543,3.854828
38.55053,87.87486,-0.09128873,0.9898543,3.854828
38.60072,82.53461,-0.05218424,0.9898543,3.854828
38.65096,78.21156,-0.01959675,0.9898543,3.854828
38.70005,74.65141,-0.01307974,0.9898543,3.854828
38.75158,72.23557,-0.02611377,0.9898543,3.854828
38.80043,70.58266,-0.05870125,0.9898543,3.854828
38.85096,68.80257,-0.1303932,0.9898543,3.854828
38.90119,66.25959,-0.1955682,0.9898543,3.854828
38.95027,80.75454,-0.3063647,0.9900191,3.854828
39.00203,102.1155,-0.4301952,0.9898543,3.854828
39.05056,101.6069,-0.5084042,0.9898543,3.854828
39.10016,98.04675,-0.5670597,0.9898543,3.854828
39.15104,97.02956,-0.6778562,0.9898543,3.854828
39.20055,90.16354,-0.7886527,0.9898543,3.861288
39.25203,87.87486,-0.8473106,0.9898543,3.861288
39.30016,87.62056,-0.8864151,0.9898543,3.861288
39.35104,83.55181,-0.9450706,0.9900191,3.861288
39.40152,77.32152,-0.9841751,0.9898543,3.861288
39.4509,75.66859,-0.9972116,0.9898543,3.861288
39.50129,73.25277,-1.062384,0.9900191,3.867747
39.55054,70.07406,-1.108006,0.9896896,3.867747
39.60102,67.40394,-1.179698,0.9898543,3.867747
39.65142,66.89534,-1.205768,0.9898543,3.867747
39.70041,72.61702,-1.264426,0.9900191,3.867747
39.75103,96.52097,-1.303531,0.9898543,3.867747
39.80007,98.55534,-1.310048,0.9898543,3.874206
39.8508,97.9196,-1.342635,0.9898543,3.874206
39.90164,94.2323,-1.368703,0.9898543,3.874206
39.95014,86.98483,-1.388257,0.9898543,3.874206
40.00103,86.22193,-1.394774,0.9898543,3.887124
40.05102,86.34908,-1.401291,0.9898543,3.880665
40.10052,77.32152,-1.407808,0.9898543,3.880665
40.15154,75.66859,-1.440395,0.9900191,3.887124
40.20001,72.99847,-1.459949,0.9898543,3.887124
40.25102,69.43831,-1.466466,0.9896896,3.887124
40.3008,68.54827,-1.486017,0.9898543,3.887124
40.35054,66.38674,-1.538157,0.9898543,3.887124
40.402,62.69943,-1.570743,0.9898543,3.887124
40.45058,66.25959,-1.616367,0.9898543,3.893583
40.5019,99.06393,-1.648954,0.9900191,3.893583
40.54994,102.3698,-1.668505,0.9898543,3.893583
40.60028,98.9368,-1.655471,0.9896896,3.900043
40.65205,97.79247,-1.688058,0.9898543,3.900043
40.7008,91.30788,-1.694576,0.9898543,3.900043
40.75137,86.98483,-1.714127,0.9898543,3.900043
40.80093,87.11198,-1.701092,0.9900191,3.906502
40.85103,86.09478,-1.675022,0.9898543,3.906502
40.90151,77.57583,-1.596813,0.9898543,3.906502
40.95014,74.52426,-1.492534,0.9900191,3.906502
41.00152,71.47269,-1.368703,0.9896896,3.906502
41.05114,69.05686,-1.15363,0.9898543,3.906502
41.10015,67.91252,-0.9972116,0.9898543,3.906502
41.15128,66.64104,-0.9190026,0.9896896,3.906502
41.20053,62.69943,-0.8473106,0.9898543,3.912961
41.252,62.19084,-0.7365142,0.9898543,3.912961
41.30088,83.67896,-0.5931302,0.9896896,3.912961
41.35026,102.6241,-0.5018871,0.9898543,3.912961
41.4004,101.3526,-0.3845737,0.9898543,3.91942
41.45138,97.53816,-0.2998452,0.9898543,3.912961
41.50092,97.28386,-0.2411897,0.9898543,3.91942
41.55102,89.40065,-0.1825318,0.9898543,3.912961
41.60104,88.38345,-0.1238762,0.9896896,3.91942
41.65003,86.98483,-0.08477172,0.9898543,3.91942
41.70154,82.66177,-0.05218424,0.9898543,3.91942
41.75063,77.32152,-0.04566722,0.9898543,3.91942
41.80079,75.92289,-0.0391502,0.9896896,3.91942
41.8505,72.48988,-0.07173768,0.9898543,3.91942
41.90088,71.85413,-0.1173592,0.9900191,3.91942
41.95137,69.05686,-0.1760147,0.9898543,3.925879
42.00006,67.40394,-0.2216363,0.9898543,3.925879
42.05099,96.13953,-0.3128817,0.9900191,3.925879
42.10053,103.387,-0.3910907,0.9898543,3.925879
42.15114,101.4798,-0.4367122,0.9898543,3.925879
42.20106,98.6825,-0.4823337,0.9898543,3.925879
42.25063,96.13953,-0.5344746,0.9898543,3.925879
42.30014,88.7649,-0.5931302,0.9898543,3.932338
42.35113,88.00201,-0.6713392,0.9900191,3.925879
42.40025,88.00201,-0.7430311,0.9898543,3.932338
42.45203,87.74771,-0.7886527,0.9896896,3.925879
42.50026,80.37309,-0.8342742,0.9898543,3.932338
42.55075,75.92289,-0.8798981,0.9900191,3.932338
42.60063,73.12562,-0.9320366,0.9896896,3.925879
42.65051,71.09124,-0.9711411,0.9898543,3.932338
42.70115,68.80257,-1.055867,0.9898543,3.925879
42.7505,66.00529,-1.088455,0.9898543,3.932338
42.80051,74.14281,-1.166664,0.9896896,3.932338
42.85025,98.80965,-1.205768,0.9898543,3.932338
42.90068,101.8612,-1.27746,0.9896896,3.925879
42.95167,99.31824,-1.297011,0.9898543,3.932338
43.00044,96.90242,-1.355669,0.9896896,3.932338
43.05089,90.67213,-1.407808,0.9898543,3.932338
43.10078,87.11198,-1.453429,0.9898543,3.932338
43.15076,86.73053,-1.466466,0.9898543,3.932338
43.20137,86.34908,-1.472983,0.9898543,3.932338
43.25091,76.94007,-1.486017,0.9898543,3.932338
43.30126,74.52426,-1.50557,0.9898543,3.932338
43.351,72.23557,-1.518604,0.9898543,3.925879
43.40094,69.81975,-1.544675,0.9900191,3.932338
43.45166,69.43831,-1.583779,0.9900191,3.932338
43.50044,67.02249,-1.616367,0.9896896,3.932338
43.55074,63.58947,-1.622884,0.9900191,3.932338
43.60091,78.08442,-1.681539,0.9898543,3.932338
43.65075,102.8784,-1.714127,0.9898543,3.925879
43.70116,99.95398,-1.727163,0.9900191,3.925879
43.75075,98.42819,-1.720644,0.9900191,3.925879
43.80099,96.64812,-1.73368,0.9898543,3.925879
43.85074,89.90925,-1.746714,0.9900191,3.932338
43.90017,87.11198,-1.740197,0.9898543,3.925879
43.95164,87.11198,-1.720644,0.9898543,3.925879
44.00062,87.11198,-1.688058,0.9898543,3.925879
44.05087,77.44867,-1.616367,0.9896896,3.925879
44.10029,75.03284,-1.499053,0.9900191,3.925879
44.15039,71.47269,-1.499053,0.9900191,3.925879
44.20151,69.56546,-1.538157,0.9898543,3.925879
44.25043,68.42112,-1.173181,0.9898543,3.925879
44.30079,66.51389,-0.7756186,0.9896896,3.932338
44.35052,63.33517,-0.4106417,0.9898543,3.925879
44.40087,70.20119,-0.05218424,0.9900191,3.91942
44.45125,96.52097,0.2606517,0.9900191,3.91942
44.50016,101.9884,0.3779652,0.9896896,3.912961
44.55101,99.69969,0.4887617,0.9898543,3.912961
44.60128,97.15671,0.4692107,0.9896896,3.91942
44.65017,94.99519,0.4431402,0.9898543,3.91942
44.70155,87.49342,0.4431402,0.9900191,3.91942
44.7508,87.49342,0.4366232,0.9898543,3.91942
44.80113,86.60338,0.6386603,0.9896896,3.91942
44.8509,79.73734,0.8732921,0.9898543,3.91942
44.90086,76.55863,0.8798067,0.9898543,3.91942
44.95139,73.76136,0.8081171,0.9898543,3.91942
45.00014,72.61702,0.6256263,0.9898543,3.91942
45.05029,71.21839,0.4040357,0.9898543,3.91942
45.10054,68.42112,0.07816329,0.9799718,3.925879
45.15078,68.67542,-0.2281557,0.9798071,3.925879
45.20213,97.02956,-0.3976077,0.9799718,3.932338
45.25098,100.5897,-0.5409917,0.9798071,3.938797
45.30117,97.53816,-0.5279552,0.9798071,3.938797
45.3502,94.48659,-0.4367122,0.9799718,3.938797
45.40078,91.68932,-0.3780542,0.9799718,3.938797
45.45179,85.71333,-0.4562656,0.9798071,3.932338
45.50113,85.45904,-0.4758167,0.9799718,3.91942
45.55084,84.0604,-0.3324327,0.9799718,3.91942
45.60087,76.94007,-0.2411897,0.9799718,3.91942
45.65088,75.16,-0.05870125,0.9798071,3.91942
45.70166,72.61702,0.2215472,0.9799718,3.91942
45.7509,71.34554,0.3453777,0.9801366,3.925879
45.80027,69.43831,0.5278686,0.9799718,3.925879
45.85136,67.14964,0.5604513,0.9798071,3.91942
45.90123,79.99165,0.5604513,0.9799718,3.912961
45.95152,99.95398,0.6516991,0.9799718,3.906502
46.00124,100.5897,0.7820442,0.9798071,3.906502
46.05062,98.42819,0.8276657,0.9798071,3.906502
46.10136,97.15671,0.8863261,0.9801366,3.906502
46.15025,92.96081,0.9189136,0.9799718,3.906502
46.20125,90.92643,0.8993601,0.9798071,3.900043
46.25129,90.54498,0.9058747,0.9798071,3.900043
46.30128,90.29069,0.9710497,0.9801366,3.893583
46.35136,82.53461,1.003637,0.9799718,3.887124
46.40134,80.50024,1.02971,0.9799718,3.887124
46.45175,78.72016,0.9123942,0.9798071,3.893583
46.50077,77.57583,0.9123942,0.9799718,3.887124
46.55126,72.10844,0.8798067,0.9799718,3.887124
46.6011,92.83366,0.8276657,0.9798071,3.887124
46.65075,103.2598,0.8602532,0.9799718,3.887124
46.70236,101.0983,0.7820442,0.9799718,3.887124
46.751,99.31824,0.7624956,0.9798071,3.887124
46.80052,97.28386,0.6582137,0.9798071,3.893583
46.85049,91.43503,0.4626912,0.9799718,3.893583
46.90139,90.92643,0.2671688,0.9799718,3.887124
46.95128,90.29069,0.1954768,0.9798071,3.880665
47.0004,83.67896,0.1628917,0.9798071,3.887124
47.05041,78.84731,0.1694087,0.9799718,3.887124
47.10091,74.39711,0.1628917,0.9798071,3.887124
47.15108,72.99847,0.2280643,0.9798071,3.900043
47.20214,68.67542,0.01299073,0.9798071,3.900043
47.25051,66.51389,-0.1890512,0.9799718,3.900043
47.30023,71.85413,-0.2868112,0.9799718,3.900043
47.35085,72.10844,-0.2672602,0.9799718,3.900043
47.40124,98.55534,-0.1760147,0.9798071,3.893583
47.45199,97.9196,-0.1629807,0.9798071,3.887124
47.50074,96.90242,-0.2216363,0.9798071,3.893583
47.55122,90.03638,-0.2607408,0.9799718,3.900043
47.6011,86.47623,-0.2868112,0.9798071,3.912961
47.65125,86.47623,-0.4758167,0.9798071,3.91942
47.70239,86.47623,-0.6517881,0.9798071,3.925879
47.75076,77.83012,-0.7430311,0.9798071,3.938797
47.80076,74.01566,-0.8212401,0.9799718,3.945257
47.85066,71.47269,-0.7299971,0.9798071,3.951716
47.90049,68.80257,-0.6387517,0.9798071,3.958175
47.95152,67.02249,-0.5800961,0.9798071,3.964634
48.00072,64.86096,-0.4236782,0.9798071,3.971093
48.05088,62.44514,-0.2737772,0.9798071,3.977553
48.10135,62.82658,-0.0782547,0.9799718,3.990471
48.15097,83.17036,0.05209522,0.9799718,3.99693
48.2016,97.41101,0.2411007,0.9798071,4.003389
48.25113,96.39381,0.4105527,0.9798071,4.016308
48.30126,95.75809,0.5604513,0.9799718,4.016308
48.35038,90.41783,0.6451797,0.9799718,4.022767
48.40126,85.45904,0.7233887,0.9798071,4.035685
48.452,85.45904,0.7755296,0.9798071,4.042144
48.50062,83.42466,0.8276657,0.9799718,4.048604
48.55132,78.08442,0.8798067,0.9798071,4.061522
48.60114,73.37991,0.8863261,0.9798071,4.067981
48.6515,71.72699,0.8667727,0.9798071,4.07444
48.70148,69.56546,0.8276657,0.9799718,4.080899
48.75143,68.54827,0.7494568,0.9898543,4.087358
48.80034,65.24241,0.6060776,0.9898543,4.093818
48.85124,68.80257,0.4822447,0.9898543,4.100276
48.90033,86.34908,0.3453777,0.9896896,4.113195
48.95241,100.9712,0.1628917,0.9898543,4.119654
49.0005,98.9368,0.06512926,0.9898543,4.126113
49.05099,96.77527,-0.07173768,0.9900191,4.132572
49.10126,93.2151,-0.2086022,0.9898543,4.139032
49.15121,86.47623,-0.3324327,0.9898543,4.145491
49.20209,86.34908,-0.4823337,0.9898543,4.15195
49.25109,85.71333,-0.5931302,0.9898543,4.158409
49.30036,77.19438,-0.6583052,0.9898543,4.164868
49.35125,73.76136,-0.6387517,0.9896896,4.171328
49.4015,70.70979,-0.6713392,0.9896896,4.177787
49.45189,69.31116,-0.7430311,0.9898543,4.184246
49.50075,67.02249,-1.010246,0.9896896,4.184246
49.55072,71.34554,-3.858359,0.9898543,4.190705
49.60085,80.75454,-3.076269,0.9898543,4.197164
49.65084,102.1155,-2.97199,0.9898543,4.197164
49.70152,99.69969,-2.639601,0.9898543,4.203623
49.75101,97.9196,-2.092138,0.9898543,4.210082
49.80073,94.61374,-1.83144,0.9900191,4.216542
49.85076,85.84048,-1.818406,0.9896896,4.223001
49.90036,85.07759,-1.805372,0.9898543,4.235919
49.95225,85.45904,-1.857511,0.9898543,4.235919
50.001,80.50024,-1.955271,0.9898543,4.235919
50.0505,73.63422,-1.922686,0.9898543,4.248837
50.10111,70.9641,-1.916166,0.9898543,4.248837
50.15073,68.92972,-1.974824,0.9898543,4.248837
50.20203,66.25959,-1.974824,0.9898543,4.255297
50.25134,63.84377,-1.96179,0.9896896,4.255297
50.3009,66.64104,-1.981341,0.9898543,4.261755
50.35099,100.4626,-2.013928,0.9898543,4.255297
50.40049,101.9884,-2.020446,0.9898543,4.268215
50.45202,99.44539,-2.026963,0.9898543,4.268215
50.50048,97.66531,-1.955271,0.9898543,4.268215
50.55073,94.2323,-1.590296,0.9898543,4.268215
50.60112,86.22193,-1.459949,0.9898543,4.268215
50.65051,84.95044,-1.381739,0.9898543,4.274674
50.70158,84.18755,-1.257907,0.9900191,4.274674
50.75087,78.33871,-1.101489,0.9900191,4.281133
50.80138,72.99847,-0.8733787,0.9898543,4.281133
50.85102,70.20119,-0.7234777,0.9896896,4.281133
50.9015,67.78539,-0.5540257,0.9898543,4.287592
50.95178,65.87814,-0.3193987,0.9898543,4.281133
51.00071,63.84377,-0.1955682,0.9898543,4.287592
51.05053,61.93654,-0.1043228,0.9900191,4.294052
51.10084,64.35236,-0.0391502,0.9900191,4.294052
51.15146,97.53816,-0.006562723,0.9898543,4.294052
51.20234,96.64812,-0.05218424,0.9898543,4.294052
51.25108,93.72369,-0.0782547,0.9898543,4.294052
51.30111,91.56216,-0.1694977,0.9898543,4.294052
51.35132,84.69615,-0.3128817,0.9898543,4.30051
51.40048,83.55181,-0.4236782,0.9898543,4.30051
51.45162,83.29751,-0.5344746,0.9898543,4.30051
51.501,79.48306,-0.7560652,0.9898543,4.30051
51.55047,72.99847,-0.8668616,0.9898543,4.30051
51.6012,71.09124,-0.9515877,0.9898543,4.294052
51.65077,67.91252,-0.9972116,0.9898543,4.30051
51.70249,65.62385,-1.068901,0.9898543,4.30051
51.75076,64.09807,-1.062384,0.9898543,4.30051
51.80146,72.48988,-1.108006,0.9896896,4.30051
51.85106,100.4626,-1.134076,0.9898543,4.30697
51.90146,96.64812,-1.15363,0.9898543,4.30697
51.95151,94.74089,-1.166664,0.9898543,4.30697
52.00102,91.81647,-1.212285,0.9898543,4.30697
52.05121,83.55181,-1.231839,0.9896896,4.30697
52.10066,83.93326,-1.25139,0.9898543,4.30051
52.15083,82.91606,-1.394774,0.9898543,4.30051
52.2026,77.32152,-1.453429,0.9896896,4.30697
52.25099,72.74417,-1.50557,0.9896896,4.30697
52.30059,69.81975,-1.538157,0.9898543,4.30051
52.35098,67.65823,-1.635918,0.9898543,4.30051
52.40087,64.73381,-1.714127,0.9888661,4.30051
52.45223,63.58947,-1.668505,0.9798071,4.30051
52.50108,70.4555,-1.701092,0.9799718,4.30051
52.55134,101.7341,-1.688058,0.9798071,4.30697
52.60147,99.31824,-1.648954,0.9798071,4.30051
52.65046,96.77527,-1.648954,0.9798071,4.30051
52.70164,95.63092,-1.688058,0.9798071,4.30051
52.75126,87.11198,-1.642435,0.9798071,4.30051
52.80096,85.71333,-1.668505,0.9798071,4.30051
52.8513,85.20473,-1.668505,0.9798071,4.294052
52.90061,80.37309,-1.648954,0.9798071,4.294052
52.95197,75.16,-1.648954,0.9799718,4.294052
53.00087,72.61702,-1.668505,0.9798071,4.294052
53.05085,70.20119,-1.668505,0.9798071,4.294052
53.10056,66.25959,-1.701092,0.9798071,4.287592
53.15106,68.16683,-1.609849,0.9799718,4.287592
53.20211,85.45904,-1.577262,0.9798071,4.287592
53.25145,102.497,-1.50557,0.9798071,4.287592
53.30086,99.95398,-1.362186,0.9798071,4.287592
53.35136,99.06393,-1.329599,0.9799718,4.287592
53.40171,97.15671,-0.9385536,0.9798071,4.287592
53.45246,89.2735,-0.7560652,0.9798071,4.287592
53.50057,88.00201,-0.6322347,0.9798071,4.287592
53.55119,88.00201,-0.4888507,0.9799718,4.281133
53.60063,83.29751,-0.4301952,0.9798071,4.281133
53.65125,77.95727,-0.3650202,0.9798071,4.281133
53.7017,75.66859,-0.3454692,0.9798071,4.281133
53.75148,72.99847,-0.3259157,0.9799718,4.281133
53.80135,69.81975,-0.3063647,0.9799718,4.274674
53.85106,70.32835,-0.2542237,0.9798071,4.274674
53.90099,97.79247,-0.2998452,0.9799718,4.274674
53.95244,103.6413,-0.3976077,0.9798071,4.274674
54.00056,100.0811,-0.4627827,0.9799718,4.274674
54.05132,99.06393,-0.5605427,0.9798071,4.274674
54.10138,95.88522,-0.6257176,0.9799718,4.274674
54.15209,89.90925,-0.6908926,0.9798071,4.268215
54.20198,88.63776,-0.6713392,0.9799718,4.274674
54.25062,88.7649,-0.6843732,0.9798071,4.274674
54.30119,82.02603,-0.7299971,0.9799718,4.268215
54.35143,78.08442,-0.7495481,0.9796425,4.268215
54.40212,74.90571,-0.7886527,0.9799718,4.261755
54.4527,73.88851,-0.8473106,0.9799718,4.268215
54.50119,71.72699,-0.9646241,0.9799718,4.268215
54.5513,82.91606,-1.238356,0.9799718,4.261755
54.60171,102.2427,-1.427361,0.9798071,4.268215
54.6516,101.9884,-1.459949,0.9798071,4.268215
54.70225,100.4626,-1.538157,0.9799718,4.261755
54.75168,99.31824,-1.622884,0.9799718,4.268215
54.80119,89.14634,-1.753231,0.9798071,4.261755
54.85085,88.7649,-1.753231,0.9799718,4.268215
54.90195,88.12916,-1.531638,0.9798071,4.261755
54.9523,84.44184,-1.544675,0.9798071,4.255297
55.00097,78.97446,-1.727163,0.9798071,4.255297
55.05119,76.17719,-2.026963,0.9798071,4.255297
55.10124,73.12562,-2.268109,0.9799718,4.255297
55.15196,70.20119,-2.457114,0.9798071,4.255297
55.20267,69.05686,-2.320247,0.9799718,4.255297
55.25083,95.24948,-2.496219,0.9799718,4.248837
55.30162,101.6069,-2.554874,0.9799718,4.242378
55.35131,100.2083,-2.496219,0.9798071,4.248837
55.40197,99.82683,-2.554874,0.9798071,4.242378
55.4527,97.9196,-2.613532,0.9798071,4.242378
55.50159,96.52097,-2.587462,0.9798071,4.242378
55.55106,89.14634,-2.548357,0.9799718,4.242378
55.60058,88.63776,-2.424527,0.9799718,4.235919
55.65282,84.82329,-2.28766,0.9798071,4.235919
55.70234,79.3559,-2.16383,0.9798071,4.235919
55.7513,75.28716,-2.020446,0.9798071,4.235919
55.80172,73.37991,-1.837957,0.9798071,4.22946
55.85144,71.85413,-1.694576,0.9798071,4.22946
55.9017,67.78539,-1.538157,0.9799718,4.22946
55.95245,69.81975,-1.472983,0.9798071,4.22946
56.00132,98.30104,-1.303531,0.9799718,4.223001
56.05069,100.7169,-1.010246,0.9798071,4.223001
56.10144,99.82683,-0.7495481,0.9799718,4.223001
56.15222,97.9196,-0.4692997,0.9798071,4.216542
56.20269,96.52097,-0.1955682,0.9798071,4.210082
56.25106,89.78209,-0.04566722,0.9798071,4.216542
56.30083,89.90925,0.01950774,0.9799718,4.210082
56.35143,89.40065,0.1433382,0.9798071,4.210082
56.40194,83.17036,0.0846827,0.9799718,4.203623
56.45285,79.99165,-0.06521826,0.9796425,4.210082
56.50111,78.59301,-0.3063647,0.9799718,4.210082
56.55143,74.90571,-0.5018871,0.9798071,4.203623
56.60112,71.85413,-0.7430311,0.9796425,4.203623
56.65208,71.09124,-0.9385536,0.9798071,4.203623
56.70258,95.63092,-1.036316,0.9799718,4.197164
56.75118,100.3354,-1.134076,0.9799718,4.197164
56.80144,98.80965,-1.186217,0.9798071,4.197164
56.85143,97.66531,-1.166664,0.9799718,4.197164
56.90173,96.39381,-1.15363,0.9798071,4.190705
56.95231,90.67213,-1.160147,0.9798071,4.197164
57.00124,89.90925,-1.127559,0.9798071,4.190705
57.05158,89.90925,-0.9059662,0.9799718,4.197164
57.10084,83.29751,-0.5279552,0.9799718,4.184246
57.15259,79.73734,-0.4301952,0.9798071,4.164868
57.20167,75.79574,-0.5279552,0.9798071,4.164868
57.25168,74.14281,-0.4953701,0.9798071,4.158409
57.30136,71.09124,-0.4367122,0.9799718,4.164868
57.35131,68.42112,-0.5735791,0.9799718,4.177787
57.40246,69.05686,-0.8473106,0.9798071,4.171328
57.45267,98.6825,-0.8733787,0.9796425,4.158409
57.50093,100.9712,-0.7234777,0.9801366,4.164868
57.55122,99.44539,-0.6778562,0.9798071,4.164868
57.60105,98.04675,-0.7560652,0.9798071,4.171328
57.65193,94.10515,-0.8342742,0.9796425,4.164868
57.70201,89.0192,-0.7691016,0.9798071,4.15195
57.75169,88.25631,-0.5800961,0.9798071,4.145491
57.80182,87.87486,-0.3976077,0.9798071,4.139032
57.85071,80.50024,-0.2086022,0.9799718,4.139032
57.90242,77.06723,-0.01959675,0.9798071,4.145491
57.95183,74.14281,0.1433382,0.9798071,4.158409
58.00181,70.20119,0.3584142,0.9798071,4.158409
58.05095,67.91252,0.4822447,0.9796425,4.145491
58.10165,66.76819,0.6582137,0.9799718,4.145491
58.15248,63.97092,0.8863261,0.9798071,4.145491
58.20206,75.66859,1.081846,0.9798071,4.139032
58.25119,75.79574,1.218716,0.9799718,4.145491
58.30083,100.0811,1.381648,0.9799718,4.132572
58.35198,97.53816,1.538066,0.9798071,4.139032
58.4027,97.15671,1.648863,0.9798071,4.132572
58.45199,93.34225,1.701004,0.9796425,4.132572
58.50107,89.78209,1.75314,0.9799718,4.126113
58.55181,86.98483,1.766178,0.9798071,4.132572
58.60081,86.22193,1.766178,0.9799718,4.126113
58.65228,80.75454,1.75314,0.9798071,4.126113
58.70245,77.44867,1.701004,0.9798071,4.126113
58.75082,73.50706,1.583688,0.9798071,4.119654
58.80142,69.43831,1.329507,0.9798071,4.119654
58.85116,67.14964,1.055778,0.9798071,4.119654
58.90227,67.53107,0.8015977,0.9798071,4.113195
58.95219,83.67896,0.4887617,0.9798071,4.113195
59.00122,100.4626,0.3127903,0.9798071,4.113195
59.05191,99.44539,0.1694087,0.9799718,4.113195
59.10092,97.28386,-4.570812e-05,0.9798071,4.113195
59.15206,95.24948,-0.1303932,0.9798071,4.113195
59.20192,86.98483,-0.2542237,0.9798071,4.113195
59.25108,86.73053,-0.3976077,0.9798071,4.113195
59.30097,86.98483,-0.4692997,0.9799718,4.106736
59.35081,80.75454,-0.5344746,0.9799718,4.106736
59.40267,76.05004,-0.6061642,0.9796425,4.106736
59.45258,72.74417,-0.6648222,0.9798071,4.106736
59.50148,69.94691,-0.7365142,0.9798071,4.106736
59.55091,69.43831,-0.8668616,0.9798071,4.106736
59.60078,66.00529,-0.9646241,0.9798071,4.106736
59.65253,68.29397,-1.029797,0.9796425,4.100276
59.7029,102.1155,-1.244873,0.9799718,4.106736
59.75085,101.3526,-1.310048,0.9798071,4.100276
59.80157,99.95398,-1.316565,0.9798071,4.100276
59.85168,98.04675,-1.349152,0.9798071,4.100276
59.90209,92.57936,-1.355669,0.9798071,4.100276
59.95209,88.25631,-1.368703,0.9798071,4.093818
60.00119,88.25631,-1.381739,0.9798071,4.100276
60.05104,88.25631,-1.381739,0.9798071,4.093818
60.10135,78.97446,-1.37522,0.9798071,4.087358
60.15219,74.52426,-1.368703,0.9799718,4.087358
60.20292,69.05686,-1.368703,0.9798071,4.087358
60.25147,66.00529,-1.368703,0.9798071,4.087358
60.30194,65.11525,-1.37522,0.9798071,4.087358
60.35134,64.47952,-1.394774,0.9798071,4.087358
60.40292,61.5551,-1.420844,0.9798071,4.080899
60.4528,59.64787,-1.433878,0.9798071,4.080899
60.50147,60.41076,-1.446912,0.9799718,4.080899
60.55141,102.2427,-1.459949,0.9798071,4.07444
60.60129,100.9712,-1.459949,0.9798071,4.080899
60.6519,98.30104,-1.453429,0.9798071,4.080899
60.70242,96.90242,-1.446912,0.9799718,4.07444
60.75103,88.38345,-1.446912,0.9798071,4.07444
60.80115,86.98483,-1.440395,0.9796425,4.07444
60.85194,85.96764,-1.414325,0.9798071,4.07444
60.90253,81.26313,-1.401291,0.9798071,4.07444
60.95242,74.90571,-1.401291,0.9799718,4.067981
61.00143,72.61702,-1.381739,0.9798071,4.067981
61.05169,67.53107,-1.342635,0.9798071,4.067981
61.10127,65.11525,-1.244873,0.9799718,4.067981
61.15282,63.97092,-0.8603446,0.9798071,4.061522
61.20269,60.66505,-0.6908926,0.9798071,4.061522
61.25203,60.02931,-0.5475087,0.9798071,4.061522
61.30204,59.26642,-0.3259157,0.9798071,4.055062
61.35178,70.20119,-0.1238762,0.9798071,4.055062
61.40194,104.0227,0.03254177,0.9799718,4.055062
61.45206,101.6069,0.1889598,0.9798071,4.061522
61.5019,99.82683,0.3388607,0.9799718,4.055062
61.55127,96.39381,0.4887617,0.9798071,4.055062
61.60163,91.30788,0.6516991,0.9798071,4.048604
61.65257,86.34908,0.8081171,0.9798071,4.048604
61.70227,85.96764,0.9384622,0.9798071,4.048604
61.75181,85.45904,1.055778,0.9798071,4.048604
61.80093,76.17719,1.179609,0.9796425,4.048604
61.85128,72.99847,1.270852,0.9799718,4.048604
61.90206,67.53107,1.35558,0.9798071,4.048604
61.95234,66.76819,1.433789,0.9798071,4.042144
62.00202,64.73381,1.518513,0.9798071,4.042144
62.05207,63.46233,1.609761,0.9798071,4.042144
62.1014,60.79221,1.694484,0.9799718,4.042144
62.15242,66.76819,1.766178,0.9798071,4.035685
62.20264,101.8612,1.837868,0.9798071,4.042144
62.25096,102.7513,1.863936,0.9798071,4.035685
62.30193,98.55534,1.903043,0.9798071,4.035685
62.3514,95.24948,1.896524,0.9798071,4.035685
62.40265,89.78209,1.896524,0.9798071,4.029226
62.45256,84.44184,1.896524,0.9798071,4.035685
62.50189,84.0604,1.896524,0.9798071,4.029226
62.55128,84.95044,1.88349,0.9798071,4.029226
62.60177,73.37991,1.850902,0.9798071,4.022767
62.65228,72.23557,1.818315,0.9798071,4.029226
62.70282,69.18401,1.785727,0.9798071,4.022767
62.75203,66.00529,1.740106,0.9798071,4.022767
62.80107,65.62385,1.674931,0.9798071,4.022767
62.85181,62.82658,1.583688,0.9798071,4.022767
62.90266,78.21156,1.466377,0.9798071,4.016308
62.95203,103.6413,1.270852,0.9798071,4.016308
63.00164,100.3354,1.081846,0.9798071,4.016308
63.05202,97.15671,0.8472192,0.9796425,4.016308
63.10104,94.48659,0.6191117,0.9798071,4.016308
63.15205,85.84048,0.4496572,0.9798071,4.016308
63.20276,85.45904,0.3127903,0.9798071,4.016308
63.25156,85.58618,0.1759257,0.9798071,4.016308
63.30138,76.55863,0.09771673,0.9799718,4.009848
63.35165,72.61702,0.03254177,0.9799718,4.009848
63.40279,69.43831,-0.04566722,0.9798071,4.009848
63.45264,68.67542,-0.1173592,0.9798071,4.009848
63.50205,67.53107,-0.1825318,0.9798071,4.003389
63.55131,63.20802,-0.2411897,0.9798071,4.009848
63.60139,69.94691,-0.3324327,0.9798071,4.003389
63.65319,105.8028,-0.3715372,0.9798071,4.003389
63.70293,104.4042,-0.4041247,0.9798071,4.003389
63.75121,100.4626,-0.4236782,0.9798071,4.003389
63.80129,98.9368,-0.4823337,0.9799718,3.99693
63.85201,93.46941,-0.5279552,0.9796425,3.99693
63.90255,88.00201,-0.5735791,0.9798071,3.99693
63.95242,87.36626,-0.5996472,0.9798071,3.990471
64.00215,85.96764,-0.6257176,0.9798071,3.99693
64.051,76.81293,-0.6452687,0.9798071,3.990471
64.10192,71.59984,-0.6583052,0.9798071,3.99693
64.15293,69.69261,-0.6843732,0.9798071,3.990471
64.20256,65.4967,-0.6974096,0.9798071,3.990471
64.2514,64.60667,-0.7560652,0.9796425,3.984012
64.30164,62.57229,-0.8082061,0.9798071,3.990471
64.3513,60.66505,-0.8277572,0.9798071,3.984012
64.40308,64.86096,-0.8733787,0.9798071,3.990471
64.45219,104.277,-0.9124832,0.9798071,3.984012
64.50117,103.2598,-0.9385536,0.9799718,3.984012
64.55166,100.4626,-0.9255196,0.9798071,3.977553
64.60114,97.53816,-0.9255196,0.9798071,3.984012
64.65292,91.05358,-0.9385536,0.9798071,3.977553
64.70235,87.87486,-0.9450706,0.9798071,3.984012
64.75175,87.36626,-0.9320366,0.9798071,3.977553
64.80164,81.89888,-0.9320366,0.9798071,3.977553
64.85188,76.94007,-0.9320366,0.9796425,3.977553
64.90231,73.25277,-0.9320366,0.9798071,3.977553
64.95241,68.67542,-0.9255196,0.9798071,3.977553
65.00189,65.62385,-0.9255196,0.9796425,3.971093
65.05141,61.93654,-0.9124832,0.9798071,3.971093
65.10162,60.66505,-0.9059662,0.9798071,3.971093
65.15213,58.75783,-0.8668616,0.9798071,3.971093
65.20263,57.74064,-0.7691016,0.9798071,3.964634
65.25126,67.78539,-0.6452687,0.9798071,3.964634
65.30181,104.4042,-0.4823337,0.9799718,3.964634
65.352,103.387,-0.3259157,0.9798071,3.964634
65.40332,98.9368,-0.08477172,0.9798071,3.964634
65.45202,97.9196,0.04557821,0.9798071,3.958175
65.50117,96.39381,0.1889598,0.9799718,3.964634
65.55167,86.60338,0.3193097,0.9798071,3.964634
65.60226,85.84048,0.4040357,0.9798071,3.958175
65.65289,79.73734,0.5278686,0.9796425,3.958175
65.70267,75.79574,0.6647332,0.9798071,3.958175
65.75177,71.85413,0.795083,0.9798071,3.958175
65.80104,67.78539,0.9319476,0.9798071,3.951716
65.85167,67.53107,1.042744,0.9798071,3.951716
65.90293,62.57229,1.107919,0.9796425,3.958175
65.95268,62.44514,1.153541,0.9798071,3.951716
66.0014,61.5551,1.22523,0.9798071,3.951716
66.05228,85.84048,1.257818,0.9798071,3.951716
66.10173,104.7856,1.290405,0.9798071,3.951716
66.15314,100.5897,1.322993,0.9798071,3.951716
66.20213,97.53816,1.316473,0.9798071,3.951716
66.25204,94.48659,1.270852,0.9798071,3.951716
66.30229,85.96764,1.238264,0.9799718,3.951716
66.35137,84.82329,1.192643,0.9799718,3.945257
66.40298,84.69615,1.140502,0.9798071,3.945257
66.45213,79.99165,1.1014,0.9798071,3.945257
66.50187,76.05004,1.062293,0.9799718,3.945257
66.55204,69.81975,1.003637,0.9798071,3.938797
66.60175,69.94691,0.9189136,0.9798071,3.945257
66.65245,64.22522,0.8276657,0.9798071,3.945257
66.70214,63.08088,0.7494568,0.9798071,3.938797
66.75125,65.87814,0.6451797,0.9798071,3.938797
66.8018,98.55534,0.5474172,0.9799718,3.938797
66.85165,102.8784,0.4626912,0.9796425,3.938797
66.90216,99.06393,0.4040357,0.9799718,3.938797
66.95329,96.64812,0.3258267,0.9798071,3.938797
67.00163,89.0192,0.1694087,0.9798071,3.932338
67.05164,86.34908,0.06512926,0.9798071,3.932338
67.10206,85.45904,-0.03263319,0.9798071,3.932338
67.15253,85.84048,-0.07173768,0.9796425,3.932338
67.20331,76.05004,-0.1173592,0.9798071,3.932338
67.25165,71.09124,-0.1694977,0.9796425,3.932338
67.30187,69.81975,-0.2542237,0.9798071,3.932338
67.35224,67.40394,-0.3454692,0.9799718,3.932338
67.40212,63.08088,-0.4236782,0.9799718,3.925879
67.45267,63.58947,-0.4627827,0.9798071,3.925879
67.50229,72.61702,-0.5214382,0.9798071,3.925879
67.55124,92.19792,-0.5735791,0.9798071,3.925879
67.60176,103.6413,-0.5996472,0.9796425,3.925879
67.65297,100.2083,-0.6257176,0.9798071,3.925879
67.70322,98.1739,-0.6517881,0.9798071,3.925879
67.75189,89.90925,-0.6843732,0.9798071,3.91942
67.80141,88.25631,-0.7039266,0.9799718,3.91942
67.85125,87.49342,-0.7169607,0.9796425,3.91942
67.90229,81.64457,-0.7299971,0.9798071,3.91942
67.9529,77.19438,-0.7495481,0.9798071,3.91942
68.00138,73.76136,-0.7756186,0.9799718,3.91942
68.05139,69.81975,-0.7951697,0.9796425,3.91942
68.10117,67.02249,-0.8147231,0.9798071,3.91942
68.15318,64.09807,-0.8473106,0.9798071,3.912961
68.20286,63.08088,-0.8864151,0.9798071,3.912961
68.25127,62.06369,-0.9190026,0.9799718,3.912961
68.30123,86.60338,-0.9450706,0.9799718,3.912961
68.35187,104.7856,-0.9581071,0.9798071,3.912961
68.40285,103.6413,-0.9581071,0.9798071,3.912961
68.45264,100.5897,-0.9581071,0.9798071,3.912961
68.5014,98.9368,-0.9581071,0.9798071,3.912961
68.55173,89.90925,-0.9776582,0.9798071,3.912961
68.60222,88.12916,-0.9711411,0.9799718,3.906502
68.65253,87.62056,-0.9515877,0.9798071,3.906502
68.70327,82.53461,-0.9385536,0.9799718,3.906502
68.75164,77.44867,-0.9385536,0.9798071,3.900043
68.80137,72.48988,-0.9320366,0.9798071,3.906502
68.85181,70.07406,-0.9320366,0.9798071,3.906502
68.90263,66.64104,-0.9255196,0.9798071,3.900043
68.95261,65.36956,-0.9450706,0.9798071,3.906502
69.00227,64.35236,-0.9450706,0.9798071,3.900043
69.05196,61.80939,-0.9515877,0.9798071,3.900043
69.10212,62.31799,-0.9906921,0.9798071,3.900043
69.15249,101.8612,-1.010246,0.9799718,3.900043
69.20279,103.6413,-1.02328,0.9798071,3.900043
69.25136,101.3526,-0.9972116,0.9798071,3.900043
69.30214,100.2083,-0.9776582,0.9798071,3.893583
69.35221,95.12233,-0.9385536,0.9796425,3.893583
69.40243,88.63776,-0.8668616,0.9798071,3.893583
69.45237,88.63776,-0.7104437,0.9798071,3.893583
69.50223,88.38345,-0.5018871,0.9798071,3.893583
69.55122,81.64457,-0.3519862,0.9798071,3.893583
69.60189,74.90571,-0.1303932,0.9798071,3.893583
69.65236,72.23557,0.01299073,0.9796425,3.893583
69.70322,68.42112,0.1563723,0.9798071,3.893583
69.75187,66.76819,0.2671688,0.9798071,3.893583
69.80193,65.11525,0.3714482,0.9798071,3.893583
69.85189,64.47952,0.4561742,0.9796425,3.893583
69.90292,61.17365,0.5865241,0.9798071,3.893583
69.95264,61.93654,0.7103546,0.9798071,3.887124
70.00184,99.31824,0.8211511,0.9798071,3.887124
70.05196,103.2598,0.9123942,0.9796425,3.887124
70.10242,99.82683,1.023191,0.9799718,3.887124
70.15289,96.39381,1.081846,0.9798071,3.887124
70.20289,93.978,1.1014,0.9799718,3.887124
70.25224,87.11198,1.107919,0.9798071,3.880665
70.30171,86.60338,1.114434,0.9798071,3.887124
70.3514,86.22193,1.09488,0.9798071,3.887124
70.40341,78.46587,1.075332,0.9798071,3.887124
70.45286,73.76136,1.042744,0.9798071,3.880665
70.50137,72.61702,0.9971226,0.9799718,3.880665
70.55138,71.47269,0.9189136,0.9798071,3.880665
70.60214,69.43831,0.8211511,0.9798071,3.880665
70.65314,67.14964,0.7559761,0.9798071,3.880665
70.70298,75.79574,0.6647332,0.9798071,3.880665
70.75151,101.4798,0.6256263,0.9798071,3.874206
70.80135,101.4798,0.5669707,0.9798071,3.874206
70.85149,99.06393,0.5343832,0.9798071,3.874206
70.90317,97.53816,0.4887617,0.9798071,3.874206
70.95264,91.68932,0.4431402,0.9796425,3.880665
71.00238,87.11198,0.4105527,0.9798071,3.874206
71.05201,86.22193,0.3910017,0.9798071,3.874206
71.10151,85.84048,0.3649312,0.9799718,3.874206
71.15292,76.05004,0.3258267,0.9796425,3.874206
71.20254,74.52426,0.2671688,0.9798071,3.874206
71.25186,72.23557,0.2085132,0.9798071,3.874206
71.30177,70.20119,0.1498553,0.9798071,3.874206
71.35161,68.29397,0.05861224,0.9798071,3.874206
71.40272,65.62385,-0.006562723,0.9798071,3.867747
71.45351,70.20119,-0.1043228,0.9798071,3.874206
71.50139,103.7684,-0.1564637,0.9799718,3.867747
71.55202,103.2598,-0.2020852,0.9798071,3.867747
71.6021,100.0811,-0.2542237,0.9798071,3.867747
71.65276,97.9196,-0.3454692,0.9798071,3.867747
71.70328,90.03638,-0.4106417,0.9798071,3.867747
71.75146,87.36626,-0.4627827,0.9799718,3.867747
71.80167,86.98483,-0.4953701,0.9798071,3.861288
71.85201,83.67896,-0.5214382,0.9796425,3.867747
71.90263,74.52426,-0.5475087,0.9796425,3.867747
71.9535,72.10844,-0.5866132,0.9799718,3.861288
72.00177,71.34554,-0.6126837,0.9798071,3.861288
72.05138,69.05686,-0.6452687,0.9798071,3.861288
72.10171,66.38674,-0.6908926,0.9798071,3.861288
72.15335,64.35236,-0.7430311,0.9798071,3.861288
72.2031,63.58947,-0.7886527,0.9798071,3.867747
72.25222,86.60338,-0.8473106,0.9798071,3.861288
72.3024,104.5313,-0.8994491,0.9799718,3.867747
72.35159,102.1155,-0.9320366,0.9799718,3.861288
72.40236,100.5897,-0.9450706,0.9798071,3.861288
72.45234,98.1739,-0.9581071,0.9799718,3.861288
72.50208,95.24948,-0.9841751,0.9799718,3.854828
72.5515,88.25631,-0.9972116,0.9796425,3.861288
72.60159,87.11198,-0.9711411,0.9798071,3.861288
72.65283,85.33189,-0.9776582,0.9799718,3.854828
72.70351,75.79574,-0.9841751,0.9798071,3.854828
72.75234,74.39711,-0.9841751,0.9798071,3.854828
72.80141,70.9641,-0.9841751,0.9798071,3.854828
72.85203,68.16683,-0.9841751,0.9799718,3.854828
72.9026,66.38674,-0.9906921,0.9798071,3.854828
72.95286,64.22522,-1.010246,0.9798071,3.848369
73.00147,62.31799,-1.016763,0.9799718,3.854828
73.05261,60.02931,-1.081938,0.9798071,3.848369
73.1025,61.3008,-1.244873,0.9798071,3.854828
73.1534,99.19109,-1.270943,0.9798071,3.848369
73.20287,100.7169,-1.186217,0.9798071,3.848369
73.25246,99.57254,-1.081938,0.9796425,3.848369
73.30162,97.15671,-0.9776582,0.9798071,3.848369
73.35234,90.16354,-0.9320366,0.9799718,3.848369
73.40341,86.98483,-0.8342742,0.9799718,3.848369
73.45315,86.34908,-0.6974096,0.9798071,3.848369
73.50185,81.39028,-0.5475087,0.9798071,3.848369
73.5522,76.55863,-0.3780542,0.9799718,3.848369
73.60172,73.37991,-0.2346727,0.9798071,3.84191
73.65287,69.31116,-0.0782547,0.9798071,3.84191
73.70322,67.27679,0.06512926,0.9798071,3.848369
73.75175,65.24241,0.1889598,0.9798071,3.848369
73.80209,63.84377,0.2541347,0.9798071,3.84191
73.85233,61.0465,0.3518948,0.9799718,3.84191
73.90275,59.77502,0.4235868,0.9799718,3.84191
73.9531,95.88522,0.4822447,0.9798071,3.84191
74.00222,103.2598,0.5604513,0.9799718,3.84191
74.05235,99.95398,0.6191117,0.9798071,3.84191
74.10146,96.39381,0.6712478,0.9796425,3.835451
74.15249,94.74089,0.6908012,0.9798071,3.84191
74.20312,86.85767,0.7103546,0.9798071,3.84191
74.25152,85.45904,0.7168692,0.9798071,3.84191
74.30259,85.71333,0.7233887,0.9798071,3.835451
74.35233,78.46587,0.7103546,0.9798071,3.84191
74.4032,75.16,0.6908012,0.9798071,3.835451
74.45296,73.50706,0.6582137,0.9799718,3.835451
74.5025,71.09124,0.5865241,0.9798071,3.84191
74.55173,67.14964,0.5474172,0.9798071,3.835451
74.60261,64.60667,0.5017957,0.9799718,3.835451
74.65297,64.35236,0.4496572,0.9798071,3.835451
74.70248,67.65823,0.4235868,0.9798071,3.835451
74.75145,102.7513,0.3844822,0.9798071,3.835451
74.80257,97.02956,0.3649312,0.9798071,3.835451
74.85261,95.24948,0.3323437,0.9799718,3.835451
74.90299,89.0192,0.2671688,0.9798071,3.835451
74.95282,84.569,0.2215472,0.9798071,3.835451
75.00163,84.44184,0.1889598,0.9798071,3.828992
75.05157,84.44184,0.1172678,0.9798071,3.828992
75.10236,76.43149,0.07164627,0.9798071,3.828992
75.15297,73.12562,0.01950774,0.9798071,3.828992
75.20358,68.80257,-0.03263319,0.9798071,3.828992
75.25211,67.53107,-0.1108422,0.9798071,3.828992
75.30186,66.25959,-0.1694977,0.9798071,3.828992
75.35149,63.20802,-0.2281557,0.9798071,3.828992
75.40282,62.31799,-0.3193987,0.9798071,3.828992
75.45372,77.06723,-0.3910907,0.9798071,3.828992
75.50259,101.2255,-0.4301952,0.9798071,3.828992
75.55261,98.55534,-0.4758167,0.9798071,3.822533
75.60212,96.01237,-0.5279552,0.9798071,3.822533
75.65257,92.19792,-0.5735791,0.9798071,3.822533
75.70248,84.82329,-0.6126837,0.9798071,3.822533
75.75159,84.82329,-0.6452687,0.9798071,3.822533
75.80159,84.69615,-0.6713392,0.9796425,3.822533
75.85162,78.08442,-0.6908926,0.9798071,3.822533
75.90345,72.74417,-0.7169607,0.9798071,3.822533
75.95335,69.94691,-0.7365142,0.9798071,3.822533
76.00182,67.78539,-0.7560652,0.9798071,3.816073
76.05225,65.36956,-0.8082061,0.9796425,3.816073
76.10152,64.22522,-0.8407936,0.9799718,3.816073
76.15313,61.17365,-0.8929321,0.9798071,3.822533
76.20257,62.57229,-0.9646241,0.9798071,3.816073
76.25199,95.63092,-1.003729,0.9798071,3.816073
76.30238,101.4798,-1.042833,0.9798071,3.816073
76.35185,100.4626,-1.055867,0.9798071,3.816073
76.4026,97.9196,-1.075421,0.9796425,3.816073
76.45339,95.88522,-1.114525,0.9798071,3.816073
76.50182,91.30788,-1.257907,0.9798071,3.816073
76.55167,88.63776,-1.244873,0.9798071,3.809614
76.60273,85.07759,-1.231839,0.9798071,3.816073
76.65332,77.44867,-1.231839,0.9798071,3.816073
76.70319,73.50706,-1.231839,0.9798071,3.816073
76.75159,70.9641,-1.238356,0.9798071,3.809614
76.8025,67.40394,-1.231839,0.9799718,3.809614
76.85256,65.87814,-1.27746,0.9798071,3.809614
76.90259,63.84377,-1.303531,0.9796425,3.809614
76.95362,61.68224,-1.323082,0.9799718,3.809614
77.00257,60.41076,-1.336116,0.9799718,3.809614
77.0518,70.07406,-1.342635,0.9798071,3.809614
77.10244,104.0227,-1.225322,0.9798071,3.809614
77.15347,99.19109,-0.9515877,0.9801366,3.809614
77.20361,96.90242,-0.8342742,0.9798071,3.809614
77.25183,95.12233,-0.6974096,0.9798071,3.809614
77.30181,86.60338,-0.5540257,0.9798071,3.809614
77.35181,85.71333,-0.3910907,0.9798071,3.803155
77.40295,85.71333,-0.2281557,0.9799718,3.803155
77.45271,80.62739,-0.08477172,0.9798071,3.803155
77.50242,78.08442,0.03905879,0.9798071,3.803155
77.55211,72.61702,0.1694087,0.9798071,3.803155
77.60157,69.18401,0.2606517,0.9798071,3.803155
77.6526,67.02249,0.3453777,0.9796425,3.809614
77.70274,65.11525,0.4301062,0.9798071,3.803155
77.75158,63.97092,0.4626912,0.9898543,3.803155
77.80207,60.41076,0.5017957,0.9896896,3.803155
77.85159,75.03284,0.5474172,0.9898543,3.803155
77.90333,104.1499,0.5734901,0.9896896,3.803155
77.9536,102.2427,0.5930387,0.9898543,3.803155
78.0026,96.77527,0.6125922,0.9898543,3.803155
78.05262,94.61374,0.5930387,0.9898543,3.803155
78.10232,87.36626,0.5604513,0.9898543,3.796696
78.15311,84.3147,0.5343832,0.9896896,3.803155
78.20308,84.0604,0.5083151,0.9896896,3.796696
78.25179,82.40748,0.4887617,0.9896896,3.796696
78.30231,75.03284,0.4561742,0.9898543,3.796696
78.3522,72.87133,0.4301062,0.9898543,3.796696
78.40374,69.05686,0.3844822,0.9798071,3.796696
78.45291,68.29397,0.3518948,0.9796425,3.796696
78.50234,66.00529,0.2736858,0.9798071,3.796696
78.55185,63.33517,0.2215472,0.9798071,3.796696
78.60197,79.48306,0.1759257,0.9798071,3.796696
78.65386,100.7169,0.1107508,0.9798071,3.796696
78.7031,101.0983,0.07164627,0.9798071,3.796696
78.7523,96.39381,0.03905879,0.9799718,3.796696
78.80168,95.12233,-0.01307974,0.9798071,3.790237
78.85182,85.96764,-0.08477172,0.9796425,3.796696
78.90356,84.0604,-0.1173592,0.9798071,3.796696
78.95296,84.0604,-0.1629807,0.9796425,3.790237
79.00256,78.84731,-0.1890512,0.9796425,3.790237
79.05231,73.76136,-0.2477067,0.9798071,3.790237
79.10271,70.4555,-0.3063647,0.9896896,3.790237
79.15355,67.27679,-0.3585032,0.9900191,3.790237
79.20332,66.00529,-0.4041247,0.9896896,3.790237
79.25191,64.22522,-0.4758167,0.9898543,3.790237
79.30197,61.5551,-0.5018871,0.9898543,3.790237
79.35191,69.31116,-0.5540257,0.9898543,3.783778
79.40321,103.387,-0.5996472,0.9898543,3.790237
79.45343,101.4798,-0.6257176,0.9896896,3.790237
79.50243,99.06393,-0.6452687,0.9896896,3.790237
79.55195,97.02956,-0.6843732,0.9896896,3.783778
79.6024,89.14634,-0.7234777,0.9896896,3.783778
79.65343,87.23911,-0.7495481,0.9898543,3.783778
79.70281,85.96764,-0.7756186,0.9898543,3.783778
79.75256,80.75454,-0.7951697,0.9896896,3.783778
79.80243,75.41429,-0.8147231,0.9898543,3.783778
79.85281,72.36273,-0.8407936,0.9896896,3.783778
79.90311,68.80257,-0.8733787,0.9898543,3.783778
79.9532,66.38674,-0.8994491,0.9898543,3.783778
80.00246,65.36956,-0.9581071,0.9896896,3.783778
80.05181,62.44514,-1.02328,0.9896896,3.783778
80.10217,61.17365,-1.062384,0.9898543,3.783778
80.15337,78.59301,-1.290494,0.9898543,3.783778
80.20317,105.5485,-1.310048,0.9896896,3.777318
80.25278,103.1327,-1.323082,0.9898543,3.783778
80.30192,99.95398,-1.316565,0.9898543,3.777318
80.35181,98.42819,-1.316565,0.9898543,3.777318
80.40356,89.90925,-1.336116,0.9896896,3.777318
80.45287,86.73053,-1.329599,0.9898543,3.777318
80.50257,86.09478,-1.316565,0.9898543,3.777318
80.55179,85.96764,-1.316565,0.9896896,3.777318
80.60282,77.57583,-1.310048,0.9898543,3.777318
80.65318,73.76136,-1.290494,0.9898543,3.777318
80.70367,69.94691,-1.27746,0.9898543,3.777318
80.75217,68.03967,-1.244873,0.9898543,3.777318
80.80286,65.62385,-1.121042,0.9898543,3.770859
80.85191,64.22522,-0.9646241,0.9896896,3.770859
80.90321,60.91935,-0.8864151,0.9898543,3.770859
80.9538,64.86096,-0.7691016,0.9898543,3.770859
81.00256,102.8784,-0.5996472,0.9898543,3.770859
81.05215,103.0055,-0.4562656,0.9898543,3.770859
81.10246,97.9196,-0.2998452,0.9898543,3.777318
81.15321,95.63092,-0.1043228,0.9898543,3.770859
81.20284,91.56216,-0.02611377,0.9898543,3.770859
81.2522,86.22193,0.09119972,0.9898543,3.770859
81.30234,86.22193,0.1889598,0.9896896,3.770859
81.35278,83.42466,0.2671688,0.9896896,3.770859
81.40333,77.19438,0.3714482,0.9898543,3.770859
81.45319,74.14281,0.4431402,0.9896896,3.7644
81.50258,72.48988,0.5278686,0.9898543,3.770859
81.55193,68.42112,0.5995582,0.9898543,3.770859
81.60235,66.76819,0.6647332,0.9898543,3.7644
81.65286,63.58947,0.7038352,0.9896896,3.7644
81.7028,64.22522,0.7233887,0.9898543,3.7644
81.75186,88.7649,0.7299081,0.9898543,3.770859
81.80236,104.0227,0.7103546,0.9898543,3.7644
81.8518,101.7341,0.6908012,0.9896896,3.7644
81.90329,96.01237,0.6451797,0.9898543,3.7644
81.95358,93.72369,0.5995582,0.9900191,3.770859
82.0018,83.93326,0.5604513,0.9898543,3.7644
82.05258,83.67896,0.5278686,0.9896896,3.7644
82.10229,84.0604,0.5017957,0.9896896,3.7644
82.15379,76.55863,0.4626912,0.9898543,3.757941
82.20293,73.88851,0.4301062,0.9896896,3.7644
82.25261,70.70979,0.3844822,0.9898543,3.7644
82.30235,68.67542,0.3518948,0.9898543,3.757941
82.35204,66.00529,0.2867222,0.9898543,3.757941
82.40396,64.86096,0.2606517,0.9898543,3.757941
82.45354,69.81975,0.2019962,0.9898543,3.757941
82.5023,103.8956,0.1498553,0.9898543,3.7644
82.55243,102.6241,0.1172678,0.9898543,3.757941
82.60281,97.66531,0.07816329,0.9896896,3.757941
82.6538,95.24948,-4.570812e-05,0.9898543,3.757941
82.70332,85.58618,-0.06521826,0.9900191,3.757941
82.75228,84.82329,-0.1303932,0.9898543,3.757941
82.80185,84.69615,-0.1760147,0.9896896,3.757941
82.85291,79.22876,-0.2281557,0.9898543,3.757941
82.90379,74.26996,-0.2737772,0.9898543,3.757941
82.95392,71.09124,-0.3454692,0.9900191,3.757941
83.00204,68.03967,-0.3585032,0.9898543,3.757941
83.05204,66.76819,-0.4041247,0.9898543,3.757941
83.10191,65.62385,-0.4562656,0.9898543,3.757941
83.15329,62.44514,-0.5018871,0.9898543,3.751482
83.20329,66.64104,-0.5344746,0.9896896,3.751482
83.25278,87.36626,-0.5996472,0.9898543,3.751482
83.30235,103.6413,-0.6843732,0.9898543,3.751482
83.35321,100.9712,-0.7169607,0.9898543,3.751482
83.40385,97.9196,-0.7560652,0.9898543,3.751482
83.4537,95.63092,-0.7821357,0.9896896,3.751482
83.50291,86.34908,-0.7951697,0.9898543,3.751482
83.55204,85.20473,-0.8082061,0.9898543,3.751482
83.60296,85.20473,-0.8147231,0.9898543,3.751482
83.65334,77.06723,-0.8212401,0.9898543,3.751482
83.70334,73.37991,-0.8342742,0.9896896,3.745023
83.75269,70.20119,-0.8407936,0.9898543,3.751482
83.80254,67.02249,-0.8603446,0.9896896,3.751482
83.85217,64.73381,-0.8668616,0.9898543,3.751482
83.9033,62.82658,-0.8994491,0.9898543,3.751482
83.95328,60.79221,-0.9385536,0.9898543,3.751482
84.00253,58.50352,-0.9646241,0.9898543,3.745023
84.05216,65.11525,-1.04935,0.9898543,3.745023
84.10259,104.0227,-1.15363,0.9898543,3.745023
84.15319,102.8784,-1.264426,0.9900191,3.745023
84.20355,98.80965,-1.238356,0.9898543,3.745023
84.25304,96.77527,-1.244873,0.9896896,3.745023
84.30231,92.96081,-1.244873,0.9898543,3.745023
84.3529,85.84048,-1.244873,0.9898543,3.738563
84.40347,85.58618,-1.075421,0.9896896,3.745023
84.45381,85.07759,-0.9646241,0.9898543,3.745023
84.5019,78.72016,-0.9124832,0.9898543,3.738563
84.55251,73.37991,-0.8212401,0.9900191,3.745023
84.60228,69.94691,-0.6974096,0.9896896,3.738563
84.65314,67.14964,-0.5279552,0.9896896,3.738563
84.70355,64.73381,-0.3910907,0.9896896,3.738563
84.75209,63.46233,-0.2672602,0.9898543,3.738563
84.80276,60.79221,-0.09780575,0.9896896,3.738563
84.85242,58.63068,-4.570812e-05,0.9898543,3.738563
84.90398,60.02931,0.1172678,0.9898543,3.738563
84.954,99.31824,0.1954768,0.9900191,3.738563
85.00207,101.0983,0.2802052,0.9896896,3.738563
85.05281,96.01237,0.3975187,0.9898543,3.738563
85.10268,93.72369,0.4496572,0.9898543,3.738563
85.15368,87.23911,0.5278686,0.9898543,3.738563
85.20356,83.17036,0.5995582,0.9896896,3.738563
85.25254,83.17036,0.6712478,0.9898543,3.738563
85.30228,83.67896,0.7429422,0.9898543,3.732104
85.35217,75.28716,0.7885637,0.9898543,3.738563
85.40401,71.85413,0.8276657,0.9900191,3.732104
85.45356,70.32835,0.8472192,0.9896896,3.732104
85.50258,67.78539,0.8341852,0.9896896,3.732104
85.55242,66.38674,0.7690102,0.9900191,3.732104
85.60232,62.82658,0.7038352,0.9898543,3.732104
85.65388,69.94691,0.6191117,0.9896896,3.738563
85.70353,102.497,0.5474172,0.9898543,3.732104
85.75229,102.6241,0.5017957,0.9898543,3.732104
85.80227,96.52097,0.4561742,0.9898543,3.732104
85.85294,93.72369,0.3714482,0.9896896,3.732104
85.90379,83.93326,0.2345813,0.9898543,3.732104
85.95401,81.89888,0.09771673,0.9900191,3.732104
86.00265,82.40748,-0.006562723,0.9898543,3.732104
86.05302,83.67896,-0.09128873,0.9898543,3.732104
86.10314,73.37991,-0.1629807,0.9896896,3.732104
86.15378,70.9641,-0.2346727,0.9898543,3.725645
86.20357,67.02249,-0.3324327,0.9898543,3.725645
86.2528,65.11525,-0.3845737,0.9898543,3.732104
86.30255,62.31799,-0.4627827,0.9898543,3.725645
86.3523,68.42112,-0.5214382,0.9896896,3.725645
86.40316,89.5278,-0.6061642,0.9898543,3.725645
86.4539,102.7513,-0.6648222,0.9898543,3.725645
86.50227,102.2427,-0.7039266,0.9898543,3.725645
86.55228,94.48659,-0.7625822,0.9898543,3.725645
86.60318,89.5278,-0.7886527,0.9898543,3.725645
86.65306,83.17036,-0.8277572,0.9898543,3.725645
86.70378,82.40748,-0.8538276,0.9898543,3.725645
86.75303,83.80611,-0.8733787,0.9900191,3.725645
86.80219,74.90571,-0.8798981,0.9898543,3.719186
86.85313,71.09124,-0.9059662,0.9898543,3.719186
86.90353,68.67542,-0.9515877,0.9898543,3.719186
86.95341,66.25959,-0.9646241,0.9898543,3.719186
87.00302,64.73381,-0.9906921,0.9896896,3.719186
87.05278,62.69943,-1.02328,0.9898543,3.719186
87.10206,60.41076,-1.04935,0.9896896,3.725645
87.15327,67.40394,-1.257907,0.9898543,3.719186
87.20395,88.89205,-1.27746,0.9898543,3.719186
87.25201,102.8784,-1.27746,0.9896896,3.719186
87.30214,98.04675,-1.270943,0.9898543,3.719186
87.35295,96.13953,-1.27746,0.9898543,3.719186
87.40416,85.84048,-1.283977,0.9898543,3.719186
87.45351,85.33189,-1.283977,0.9900191,3.719186
87.50305,84.82329,-1.27746,0.9898543,3.719186
87.55213,84.82329,-1.270943,0.9898543,3.712727
87.60201,76.05004,-1.244873,0.9896896,3.719186
87.65421,71.47269,-1.173181,0.9898543,3.719186
87.70393,68.16683,-1.062384,0.9898543,3.719186
87.75317,66.00529,-1.04935,0.9900191,3.712727
87.80275,64.86096,-1.016763,0.9896896,3.712727
87.85242,62.06369,-0.9906921,0.9898543,3.712727
87.90331,60.79221,-0.9581071,0.9898543,3.712727
87.95313,84.18755,-0.8994491,0.9900191,3.712727
88.00227,103.387,-0.7951697,0.9898543,3.712727
88.05239,99.57254,-0.6061642,0.9896896,3.712727
88.10251,97.15671,-0.4301952,0.9898543,3.712727
88.1533,92.96081,-0.2933282,0.9898543,3.712727
88.20327,84.82329,-0.1043228,0.9898543,3.712727
88.25293,84.82329,-0.01307974,0.9898543,3.712727
88.30205,84.3147,0.1042337,0.9898543,3.712727
88.35305,77.83012,0.2150302,0.9898543,3.712727
88.40379,73.37991,0.3062733,0.9898543,3.712727
88.45348,71.47269,0.4170697,0.9898543,3.712727
88.5025,68.03967,0.4626912,0.9896896,3.706268
88.55232,66.00529,0.5409026,0.9898543,3.712727
88.60242,63.08088,0.6060776,0.9898543,3.706268
88.65414,64.35236,0.6777672,0.9898543,3.706268
88.70405,81.51743,0.7168692,0.9898543,3.706268
88.75266,99.06393,0.7559761,0.9898543,3.706268
88.80267,102.3698,0.8015977,0.9898543,3.706268
88.85328,96.01237,0.8146317,0.9898543,3.712727
88.90329,93.59654,0.8015977,0.9898543,3.706268
88.95349,84.69615,0.7429422,0.9898543,3.706268
89.00278,84.82329,0.7038352,0.9898543,3.706268
89.0525,85.07759,0.6321456,0.9898543,3.706268
89.10305,78.33871,0.5213492,0.9898543,3.706268
89.15418,74.01566,0.4235868,0.9898543,3.706268
89.20419,71.47269,0.2411007,0.9898543,3.706268
89.25278,69.94691,0.1107508,0.9896896,3.706268
89.30226,66.89534,0.01299073,0.9896896,3.699808
89.35277,66.00529,-0.06521826,0.9898543,3.699808
89.40387,74.14281,-0.1629807,0.9900191,3.699808
89.4539,103.8956,-0.2868112,0.9898543,3.699808
89.50264,99.82683,-0.3259157,0.9900191,3.699808
89.55302,98.6825,-0.3650202,0.9900191,3.699808
89.60252,95.63092,-0.3910907,0.9898543,3.693349
89.65428,87.11198,-0.3193987,0.9898543,3.699808
89.70369,86.22193,-0.2737772,0.9898543,3.699808
89.75266,85.84048,-0.2672602,0.9900191,3.699808
89.80238,85.45904,-0.2542237,0.9898543,3.699808
89.853,76.30434,-0.2411897,0.9898543,3.699808
89.90366,72.23557,-0.2020852,0.9898543,3.693349
89.95354,69.81975,-0.1890512,0.9898543,3.699808
90.00249,67.53107,-0.2151192,0.9898543,3.693349
90.05287,66.25959,-0.2151192,0.9896896,3.693349
90.10263,73.76136,-0.2477067,0.9898543,3.693349
90.15354,103.1327,-0.2411897,0.9900191,3.693349
90.20324,102.497,-0.2086022,0.9898543,3.693349
90.25239,99.82683,-0.1434273,0.9896896,3.693349
90.30312,98.04675,-0.1238762,0.9898543,3.693349
90.35228,89.40065,-0.09128873,0.9896896,3.693349
90.40327,87.74771,0.006473713,0.9898543,3.693349
90.45419,87.87486,0.05861224,0.9898543,3.693349
90.50225,88.25631,0.04557821,0.9896896,3.693349
90.55253,79.3559,-0.2086022,0.9896896,3.693349
90.60311,76.17719,-0.3976077,0.9898543,3.693349
90.65416,73.25277,-0.5214382,0.9898543,3.693349
90.70415,69.05686,-0.6713392,0.9900191,3.693349
90.75241,69.31116,-0.7821357,0.9898543,3.68689
90.8023,98.04675,-0.8473106,0.9898543,3.693349
90.85275,105.2942,-0.8798981,0.9896896,3.693349
90.90351,103.1327,-0.9059662,0.9898543,3.68689
90.95389,100.0811,-0.9385536,0.9900191,3.68689
91.00269,98.30104,-0.9711411,0.9898543,3.68689
91.05228,89.14634,-1.003729,0.9896896,3.68689
91.10224,89.0192,-1.010246,0.9898543,3.68689
91.15336,88.12916,-1.016763,0.9900191,3.68689
91.20327,78.84731,-1.02328,0.9898543,3.68689
91.25317,76.43149,-1.101489,0.9898543,3.680431
91.30243,74.01566,-1.14711,0.9898543,3.68689
91.35274,70.58266,-1.218802,0.9898543,3.68689
91.40328,68.92972,-1.270943,0.9898543,3.68689
91.45392,75.66859,-1.303531,0.9898543,3.68689
91.50324,103.2598,-1.297011,0.9898543,3.680431
91.55267,102.497,-1.238356,0.9900191,3.68689
91.60323,100.5897,-0.8798981,0.9896896,3.680431
91.65342,97.9196,-0.5214382,0.9896896,3.68689
91.70365,87.87486,-0.1434273,0.9898543,3.680431
91.75285,86.98483,0.2606517,0.9900191,3.68689
91.80295,86.73053,0.6125922,0.9898543,3.680431
91.85326,75.03284,1.1014,0.9896896,3.680431
91.90425,72.23557,1.629309,0.9898543,3.680431
91.95424,72.23557,1.876975,0.9898543,3.68689
92.00266,71.98129,1.837868,0.9898543,3.680431
92.05324,69.31116,1.687969,0.9898543,3.680431
92.10249,71.09124,1.596722,0.9898543,3.680431
92.15323,94.99519,1.479411,0.9898543,3.680431
92.20373,105.1671,1.375134,0.9898543,3.680431
92.25287,102.6241,1.35558,0.9898543,3.680431
92.30247,99.82683,1.316473,0.9898543,3.673972
92.35277,95.37663,1.251298,0.9898543,3.673972
92.40337,87.11198,1.22523,0.9900191,3.673972
92.45325,86.73053,1.238264,0.9898543,3.680431
92.50303,86.85767,1.316473,0.9900191,3.673972
92.55261,80.62739,1.336027,0.9898543,3.673972
92.60335,77.83012,1.329507,0.9898543,3.673972
92.65326,73.50706,1.296924,0.9898543,3.673972
92.70376,70.32835,1.23175,0.9898543,3.673972
92.7523,67.65823,1.186128,0.9898543,3.673972
92.80322,71.59984,1.09488,0.9898543,3.673972
92.85261,100.5897,1.003637,0.9898543,3.673972
92.90401,101.8612,0.9058747,0.9898543,3.673972
92.95423,99.06393,0.7690102,0.9900191,3.673972
93.0024,97.28386,0.5669707,0.9898543,3.673972
93.05226,87.49342,0.4235868,0.9898543,3.673972
93.10301,86.85767,0.3323437,0.9898543,3.673972
93.15379,86.22193,0.2476177,0.9898543,3.667513
93.20419,86.34908,0.1172678,0.9898543,3.673972
93.25273,76.17719,0.04557821,0.9898543,3.667513
93.30278,73.12562,-0.01959675,0.9898543,3.667513
93.35249,71.09124,-0.06521826,0.9898543,3.667513
93.40424,67.02249,-0.1238762,0.9898543,3.667513
93.45427,66.38674,-0.1694977,0.9898543,3.667513
93.50251,66.51389,-0.2607408,0.9898543,3.667513
93.553,103.5141,-0.3193987,0.9900191,3.667513
93.60306,102.6241,-0.3454692,0.9898543,3.667513
93.65338,99.31824,-0.3650202,0.9898543,3.667513
93.70399,95.75809,-0.4041247,0.9898543,3.667513
93.75251,87.62056,-0.4367122,0.9898543,3.661053
93.80248,86.85767,-0.4627827,0.9898543,3.667513
93.85248,86.09478,-0.4888507,0.9896896,3.661053
93.90398,79.99165,-0.5084042,0.9898543,3.667513
93.9536,74.77856,-0.5279552,0.9898543,3.661053
94.00251,71.59984,-0.5670597,0.9898543,3.667513
94.05324,68.16683,-0.5866132,0.9896896,3.661053
94.10347,66.76819,-0.6387517,0.9896896,3.667513
94.15424,63.58947,-0.6778562,0.9898543,3.667513
94.20377,61.17365,-0.7104437,0.9900191,3.667513
94.25346,72.23557,-0.7495481,0.9898543,3.661053
94.30286,102.3698,-0.7756186,0.9898543,3.661053
94.35246,101.9884,-0.7886527,0.9898543,3.661053
94.40442,99.82683,-0.7821357,0.9898543,3.661053
94.45425,96.64812,-0.7886527,0.9898543,3.661053
94.50284,93.08795,-0.8016891,0.9900191,3.661053
94.55249,85.20473,-0.8147231,0.9898543,3.661053
94.60323,85.20473,-0.8082061,0.9898543,3.654594
94.65359,80.50024,-0.8016891,0.9898543,3.661053
94.70426,74.65141,-0.8016891,0.9898543,3.661053
94.75297,70.58266,-0.7951697,0.9898543,3.661053
94.80273,67.53107,-0.7821357,0.9898543,3.661053
94.85249,65.24241,-0.7104437,0.9896896,3.654594
94.90372,63.20802,-0.5996472,0.9898543,3.654594
94.95372,61.5551,-0.4367122,0.9900191,3.661053
95.00349,58.37638,-0.3193987,0.9898543,3.654594
95.05291,65.4967,-0.1108422,0.9898543,3.654594
95.10236,87.36626,0.01950774,0.9900191,3.654594
95.15372,101.4798,0.1498553,0.9898543,3.654594
95.20415,98.6825,0.2802052,0.9898543,3.654594
95.25286,94.86804,0.3910017,0.9898543,3.654594
95.30273,92.45221,0.4952787,0.9898543,3.654594
95.35287,83.93326,0.5995582,0.9898543,3.654594
95.40425,83.55181,0.7103546,0.9896896,3.654594
95.45449,83.29751,0.8341852,0.9898543,3.654594
95.50273,75.03284,0.9058747,0.9898543,3.654594
95.55338,71.21839,0.9645351,0.9898543,3.654594
95.6035,69.31116,1.003637,0.9900191,3.648135
95.65409,67.91252,1.010157,0.9898543,3.648135
95.70448,65.4967,0.9971226,0.9900191,3.648135
95.75275,63.20802,0.9775691,0.9898543,3.648135
95.80238,74.39711,0.8928407,0.9900191,3.648135
95.85323,100.0811,0.795083,0.9898543,3.648135
95.90348,102.7513,0.6973206,0.9898543,3.648135
95.95383,96.52097,0.6516991,0.9898543,3.654594
96.00238,93.34225,0.5734901,0.9898543,3.648135
96.05325,86.60338,0.5148298,0.9898543,3.648135
96.10311,82.02603,0.4692107,0.9898543,3.654594
96.15373,82.15317,0.4235868,0.9900191,3.648135
96.20409,82.02603,0.3910017,0.9896896,3.648135
96.25272,73.63422,0.3258267,0.9898543,3.648135
96.30336,71.47269,0.2736858,0.9898543,3.648135
96.35313,67.91252,0.2150302,0.9900191,3.648135
96.40375,66.25959,0.1498553,0.9898543,3.648135
96.45451,64.35236,0.07164627,0.9898543,3.648135
96.5033,64.22522,0.006473713,0.9900191,3.648135
96.55309,88.7649,-0.06521826,0.9900191,3.648135
96.60246,105.1671,-0.1173592,0.9898543,3.641676
96.65462,102.2427,-0.1499467,0.9898543,3.648135
96.70348,95.88522,-0.2216363,0.9896896,3.641676
96.75272,88.89205,-0.2933282,0.9900191,3.648135
96.8035,83.67896,-0.3128817,0.9896896,3.641676
96.85345,84.44184,-0.3389497,0.9898543,3.641676
96.90423,85.07759,-0.3650202,0.9896896,3.641676
96.95346,74.39711,-0.3910907,0.9898543,3.641676
97.00323,72.61702,-0.4171611,0.9898543,3.641676
97.05329,68.67542,-0.4497462,0.9900191,3.641676
97.10263,68.03967,-0.5018871,0.9898543,3.641676
97.1545,65.4967,-0.5540257,0.9898543,3.641676
97.20461,63.20802,-0.6192006,0.9898543,3.641676
97.25251,62.69943,-0.6713392,0.9898543,3.641676
97.30273,100.4626,-0.7299971,0.9898543,3.641676
97.35248,106.9472,-0.7625822,0.9898543,3.635217
97.40372,103.2598,-0.7691016,0.9898543,3.635217
97.45409,99.57254,-0.7886527,0.9898543,3.641676
97.50327,98.9368,-0.8016891,0.9898543,3.641676
97.55322,87.11198,-0.8212401,0.9900191,3.635217
97.60258,86.34908,-0.8342742,0.9898543,3.635217
97.65362,85.96764,-0.8538276,0.9898543,3.635217
97.70422,81.00883,-0.8668616,0.9898543,3.635217
97.75323,75.03284,-0.8798981,0.9898543,3.635217
97.80346,72.48988,-0.8864151,0.9898543,3.635217
97.8536,69.18401,-0.8994491,0.9898543,3.635217
97.90459,67.91252,-0.9255196,0.9898543,3.635217
97.95421,65.24241,-0.9450706,0.9898543,3.635217
98.00302,62.69943,-0.9646241,0.9900191,3.635217
98.05357,81.64457,-1.075421,0.9898543,3.635217
98.10302,106.6929,-1.173181,0.9898543,3.635217
98.15407,104.6585,-1.199251,0.9898543,3.635217
98.20358,101.7341,-1.127559,0.9898543,3.628757
98.25349,98.42819,-1.062384,0.9898543,3.635217
98.30309,90.41783,-1.010246,0.9898543,3.628757
98.35309,87.36626,-0.9255196,0.9898543,3.635217
98.40395,86.98483,-0.8277572,0.9898543,3.635217
98.45364,87.11198,-0.6908926,0.9898543,3.628757
98.50298,80.50024,-0.5018871,0.9898543,3.628757
98.55283,73.88851,-0.3715372,0.9898543,3.628757
98.60346,71.47269,-0.2151192,0.9898543,3.628757
98.65447,69.56546,-0.02611377,0.9898543,3.628757
98.70376,67.14964,0.05209522,0.9898543,3.628757
98.75349,64.60667,0.1694087,0.9900191,3.628757
98.80326,62.31799,0.2736858,0.9900191,3.628757
98.85272,68.29397,0.3584142,0.9898543,3.628757
98.90356,105.93,0.4431402,0.9898543,3.628757
98.95383,104.7856,0.5669707,0.9900191,3.628757
99.00335,100.5897,0.6516991,0.9900191,3.622298
99.05345,98.55534,0.7364227,0.9898543,3.628757
99.10373,89.0192,0.8276657,0.9898543,3.622298
99.15362,86.98483,0.8732921,0.9900191,3.628757
99.20422,87.11198,0.9058747,0.9898543,3.622298
99.25311,87.11198,0.9254282,0.9898543,3.628757
99.30348,77.32152,0.9058747,0.9900191,3.622298
99.35376,75.79574,0.8537386,0.9898543,3.622298
99.40452,72.23557,0.7559761,0.9898543,3.622298
99.45461,71.09124,0.6516991,0.9900191,3.622298
99.50322,69.43831,0.5800048,0.9900191,3.622298
99.55376,72.48988,0.4822447,0.9900191,3.622298
99.6035,104.0227,0.4301062,0.9900191,3.622298
99.65462,105.93,0.3910017,0.9898543,3.622298
99.70386,102.1155,0.3453777,0.9898543,3.622298
99.75282,99.57254,0.2867222,0.9900191,3.622298
99.80314,91.94361,0.2280643,0.9900191,3.622298
99.8535,88.63776,0.1824427,0.9900191,3.622298
99.90376,88.5106,0.1433382,0.9898543,3.615839
99.95426,88.5106,0.06512926,0.9898543,3.622298
100.0027,78.46587,0.01950774,0.9898543,3.622298
100.0532,77.19438,-0.02611377,0.9898543,3.622298
100.1034,73.37991,-0.09128873,0.9898543,3.615839
100.1539,71.72699,-0.1369102,0.9898543,3.615839
100.2046,68.92972,-0.2086022,0.9898543,3.622298
100.2532,67.53107,-0.2672602,0.9898543,3.615839
100.3034,95.50377,-0.3259157,0.9898543,3.622298
100.3527,107.0743,-0.3519862,0.9900191,3.615839
100.4044,104.1499,-0.3845737,0.9898543,3.615839
100.4546,101.9884,-0.4171611,0.9898543,3.615839
100.5027,100.2083,-0.4562656,0.9898543,3.615839
100.553,90.54498,-0.5149212,0.9898543,3.615839
100.6028,89.40065,-0.5475087,0.9898543,3.615839
100.6544,89.0192,-0.5800961,0.9898543,3.615839
100.7042,81.64457,-0.6126837,0.9898543,3.615839
100.7531,77.19438,-0.6452687,0.9900191,3.615839
100.8028,74.14281,-0.6713392,0.9898543,3.615839
100.853,71.47269,-0.7104437,0.9898543,3.615839
100.9048,70.20119,-0.7430311,0.9898543,3.60938
100.9541,67.91252,-0.7821357,0.9900191,3.60938
101.0035,65.62385,-0.8277572,0.9898543,3.60938
101.0533,71.85413,-0.9124832,0.9898543,3.60938
101.1027,106.0571,-0.9515877,0.9898543,3.60938
101.1544,105.5485,-0.9776582,0.9900191,3.60938
101.2037,103.2598,-0.9906921,0.9898543,3.60938
101.2527,102.2427,-1.010246,0.9896896,3.615839
101.3027,93.59654,-1.04935,0.9900191,3.60938
101.3537,91.43503,-1.062384,0.9900191,3.60938
101.4047,90.67213,-1.062384,0.9898543,3.602921
101.4541,90.67213,-1.068901,0.9898543,3.60938
101.5033,80.75454,-1.081938,0.9900191,3.60938
101.5532,77.32152,-1.062384,0.9900191,3.60938
101.6035,72.99847,-1.088455,0.9898543,3.602921
101.6549,71.59984,-1.101489,0.9898543,3.602921
101.7049,69.56546,-1.244873,0.9898543,3.602921
101.7531,67.53107,-1.25139,0.9900191,3.602921
101.803,64.86096,-1.25139,0.9900191,3.602921
101.8528,63.97092,-1.297011,0.9898543,3.602921
101.9044,91.56216,-1.316565,0.9898543,3.60938
101.9537,105.8028,-1.316565,0.9900191,3.602921
102.0039,104.4042,-1.244873,0.9898543,3.602921
102.0537,102.2427,-1.062384,0.9900191,3.602921
102.1027,98.30104,-0.8864151,0.9898543,3.602921
102.1537,90.92643,-0.7951697,0.9900191,3.602921
102.2047,90.16354,-0.6192006,0.9898543,3.602921
102.2532,89.90925,-0.4367122,0.9898543,3.602921
102.3034,84.69615,-0.3128817,0.9898543,3.602921
102.3537,80.24594,-0.1434273,0.9898543,3.602921
102.4042,75.28716,0.01299073,0.9900191,3.602921
102.4543,73.37991,0.1303042,0.9898543,3.602921
102.5034,71.98129,0.2345813,0.9898543,3.602921
102.5538,68.67542,0.3127903,0.9900191,3.602921
102.6033,66.64104,0.4170697,0.9900191,3.602921
102.6542,64.22522,0.4692107,0.9898543,3.596462
102.7046,63.71662,0.5083151,0.9896896,3.596462
102.7532,79.48306,0.5669707,0.9900191,3.596462
102.8031,103.6413,0.5930387,0.9898543,3.596462
102.8528,102.2427,0.6256263,0.9900191,3.596462
102.9044,99.82683,0.6386603,0.9896896,3.596462
102.9544,98.30104,0.6256263,0.9900191,3.596462
103.0031,88.7649,0.6125922,0.9898543,3.602921
103.0535,88.5106,0.5865241,0.9898543,3.596462
103.1031,88.63776,0.5409026,0.9898543,3.590003
103.154,82.40748,0.5148298,0.9898543,3.596462
103.2044,78.21156,0.4822447,0.9900191,3.596462
103.253,75.92289,0.4431402,0.9898543,3.596462
103.3033,73.25277,0.3975187,0.9898543,3.596462
103.3534,70.4555,0.3453777,0.9898543,3.596462
103.4042,67.78539,0.2932392,0.9898543,3.590003
103.4542,66.89534,0.2606517,0.9898543,3.596462
103.5031,73.12562,0.2150302,0.9898543,3.590003
103.5534,103.8956,0.1759257,0.9900191,3.590003
103.6029,101.6069,0.1628917,0.9898543,3.596462
103.6542,98.80965,0.1042337,0.9900191,3.590003
103.7045,93.85085,0.01299073,0.9898543,3.590003
103.7539,86.85767,-0.0391502,0.9898543,3.590003
103.8037,86.47623,-0.08477172,0.9900191,3.590003
103.854,86.73053,-0.1434273,0.9898543,3.590003
103.9047,84.82329,-0.2020852,0.9898543,3.590003
103.9548,75.41429,-0.2607408,0.9898543,3.590003
104.0028,72.99847,-0.3128817,0.9900191,3.590003
104.0538,69.81975,-0.3389497,0.9898543,3.590003
104.1039,68.54827,-0.3845737,0.9898543,3.590003
104.1545,65.4967,-0.4432292,0.9898543,3.590003
104.204,63.97092,-0.4953701,0.9898543,3.583544
104.254,72.23557,-0.5670597,0.9900191,3.590003
104.3036,105.0399,-0.6322347,0.9900191,3.583544
104.353,103.8956,-0.6713392,0.9898543,3.583544
104.4042,99.69969,-0.7104437,0.9898543,3.583544
104.454,98.80965,-0.7299971,0.9898543,3.583544
104.5038,91.68932,-0.7625822,0.9898543,3.583544
104.5532,88.5106,-0.7756186,0.9900191,3.583544
104.6032,88.12916,-0.7886527,0.9898543,3.583544
104.6542,87.74771,-0.8147231,0.9898543,3.583544
104.7038,76.43149,-0.8473106,0.9898543,3.583544
104.7537,72.87133,-0.8603446,0.9898543,3.583544
104.8035,69.81975,-0.8798981,0.9898543,3.577085
104.8537,68.16683,-0.8929321,0.9898543,3.577085
104.9044,65.87814,-0.9320366,0.9898543,3.583544
104.955,64.73381,-0.9906921,0.9898543,3.577085
105.0033,61.17365,-1.02328,0.9900191,3.577085
105.0537,65.24241,-1.25139,0.9900191,3.577085
105.1032,105.0399,-1.257907,0.9898543,3.577085
105.1545,104.4042,-1.264426,0.9898543,3.577085
105.204,100.9712,-1.257907,0.9898543,3.577085
105.2532,99.06393,-1.244873,0.9898543,3.577085
105.304,93.978,-1.238356,0.9898543,3.577085
105.3532,88.12916,-1.238356,0.9898543,3.577085
105.4033,87.74771,-1.108006,0.9898543,3.577085
105.4536,86.98483,-0.9190026,0.9898543,3.577085
105.5034,78.97446,-0.8342742,0.9898543,3.577085
105.5546,74.52426,-0.6648222,0.9900191,3.577085
105.6032,70.9641,-0.4692997,0.9900191,3.577085
105.6541,68.54827,-0.3389497,0.9898543,3.570625
105.7035,66.76819,-0.1694977,0.9898543,3.570625
105.7532,65.4967,-0.01307974,0.9799718,3.577085
105.8039,62.31799,0.09119972,0.9798071,3.577085
105.8532,61.93654,0.2215472,0.9798071,3.570625
105.9034,103.1327,0.3193097,0.9798071,3.570625
105.953,105.0399,0.4301062,0.9799718,3.570625
106.0038,102.8784,0.5213492,0.9799718,3.570625
106.0549,99.31824,0.6256263,0.9798071,3.570625
106.103,97.53816,0.7168692,0.9799718,3.570625
106.1541,87.74771,0.795083,0.9799718,3.570625
106.2029,86.98483,0.8798067,0.9799718,3.570625
106.2534,86.98483,0.9189136,0.9798071,3.570625
106.3049,82.78893,0.9384622,0.9798071,3.570625
106.3531,77.32152,0.9449816,0.9799718,3.570625
106.4041,74.39711,0.9123942,0.9799718,3.564166
106.4536,72.23557,0.8472192,0.9799718,3.564166
106.5041,70.58266,0.7429422,0.9798071,3.564166
106.5543,67.40394,0.6777672,0.9799718,3.564166
106.6029,72.99847,0.6060776,0.9798071,3.570625
106.6532,105.5485,0.5278686,0.9798071,3.564166
106.703,104.7856,0.4952787,0.9799718,3.564166
106.7531,100.5897,0.4822447,0.9799718,3.564166
106.8045,97.9196,0.4366232,0.9798071,3.564166
106.8534,94.86804,0.4105527,0.9799718,3.564166
106.9041,86.98483,0.3975187,0.9798071,3.564166
106.9529,86.98483,0.3649312,0.9799718,3.564166
107.0034,86.22193,0.3323437,0.9798071,3.564166
107.0544,76.94007,0.2867222,0.9798071,3.564166
107.104,74.52426,0.2541347,0.9798071,3.564166
107.1539,71.72699,0.2019962,0.9799718,3.564166
107.2036,70.32835,0.1433382,0.9799718,3.564166
107.254,67.02249,0.05209522,0.9798071,3.564166
107.3044,69.05686,-0.02611377,0.9798071,3.557707
107.3535,88.12916,-0.09780575,0.9798071,3.557707
107.4038,104.6585,-0.1564637,0.9798071,3.557707
107.453,102.497,-0.2216363,0.9799718,3.564166
107.5032,101.7341,-0.3063647,0.9799718,3.564166
107.5544,93.2151,-0.3454692,0.9799718,3.557707
107.6037,88.25631,-0.4041247,0.9798071,3.564166
107.6538,88.25631,-0.4497462,0.9798071,3.557707
107.704,88.25631,-0.5084042,0.9798071,3.557707
107.7529,79.48306,-0.5670597,0.9801366,3.557707
107.804,75.41429,-0.5996472,0.9798071,3.557707
107.8537,73.25277,-0.6387517,0.9799718,3.557707
107.9038,71.21839,-0.7104437,0.9798071,3.557707
107.9532,68.42112,-0.7560652,0.9798071,3.557707
108.0038,66.38674,-0.8082061,0.9798071,3.551248
108.0542,70.58266,-0.8929321,0.9799718,3.557707
108.1036,105.6757,-0.9450706,0.9798071,3.557707
108.1539,105.8028,-0.9776582,0.9799718,3.557707
108.2032,103.2598,-0.9906921,0.9799718,3.557707
108.254,101.2255,-1.036316,0.9798071,3.557707
108.3044,96.64812,-1.081938,0.9799718,3.557707
108.3536,90.03638,-1.179698,0.9798071,3.551248
108.4036,89.78209,-1.225322,0.9798071,3.551248
108.4539,89.5278,-1.225322,0.9799718,3.551248
108.5033,82.15317,-1.238356,0.9798071,3.551248
108.5548,78.08442,-1.238356,0.9798071,3.551248
108.6034,74.39711,-1.257907,0.9799718,3.557707
108.653,71.34554,-1.257907,0.9799718,3.551248
108.7039,70.32835,-1.27746,0.9799718,3.551248
108.7531,67.78539,-1.290494,0.9798071,3.551248
108.8048,64.86096,-1.297011,0.9799718,3.544789
108.8534,71.98129,-1.336116,0.9798071,3.551248
108.9039,104.277,-1.342635,0.9798071,3.551248
108.9541,104.6585,-1.316565,0.9798071,3.551248
109.0042,102.497,-1.15363,0.9798071,3.544789
109.0547,100.4626,-0.8929321,0.9798071,3.544789
109.104,95.75809,-0.7560652,0.9799718,3.551248
109.1537,91.05358,-0.5214382,0.9799718,3.551248
109.2032,89.78209,-0.3585032,0.9799718,3.551248
109.2538,86.22193,-0.1629807,0.9798071,3.551248
109.3042,81.26313,0.01299073,0.9798071,3.551248
109.3541,78.21156,0.1368212,0.9799718,3.544789
109.4042,74.26996,0.2606517,0.9898543,3.544789
109.4539,71.72699,0.3714482,0.9900191,3.544789
109.5036,71.72699,0.4626912,0.9898543,3.551248
109.5546,69.05686,0.5539367,0.9898543,3.544789
109.604,66.76819,0.6321456,0.9898543,3.544789
109.653,78.59301,0.6908012,0.9898543,3.544789
109.7038,105.5485,0.7624956,0.9898543,3.544789
109.7534,104.4042,0.8276657,0.9898543,3.544789
109.8051,102.6241,0.8537386,0.9898543,3.544789
109.854,100.3354,0.8407046,0.9898543,3.551248
109.9034,91.81647,0.795083,0.9898543,3.557707
109.954,89.5278,0.7885637,0.9898543,3.564166
110.0034,89.40065,0.8276657,0.9898543,3.564166
110.0547,86.09478,0.8081171,0.9898543,3.557707
110.104,81.13599,0.7624956,0.9898543,3.564166
110.153,79.99165,0.5930387,0.9900191,3.557707
110.2036,77.70296,0.4040357,0.9898543,3.557707
110.254,74.39711,0.2476177,0.9901838,3.570625
110.3044,70.9641,0.1824427,0.9898543,3.564166
110.3535,73.76136,0.03254177,0.9900191,3.570625
110.4037,104.1499,-0.1629807,0.9898543,3.570625
110.453,105.1671,-0.2542237,0.9900191,3.577085
110.5034,103.8956,-0.3063647,0.9900191,3.564166
110.554,101.3526,-0.4236782,0.9898543,3.557707
110.6042,97.53816,-0.5279552,0.9898543,3.551248
110.654,90.54498,-0.6583052,0.9898543,3.538329
110.7032,89.78209,-0.7625822,0.9898543,3.53187
110.753,89.65494,-0.7886527,0.9898543,3.525411
110.8045,81.13599,-0.8277572,0.9898543,3.525411
110.854,78.46587,-0.8733787,0.9900191,3.53187
110.9034,75.41429,-0.8733787,0.9898543,3.53187
110.9533,72.61702,-0.9515877,0.9900191,3.53187
111.0034,69.81975,-0.9906921,0.9898543,3.538329
111.0551,66.89534,-1.02328,0.9900191,3.538329
111.1039,68.16683,-1.108006,0.9798071,3.538329
111.1535,100.9712,-1.27746,0.9801366,3.53187
111.2036,105.0399,-1.290494,0.9798071,3.538329
111.2542,103.2598,-1.25139,0.9799718,3.538329
111.305,101.4798,-1.238356,0.9799718,3.538329
111.354,98.9368,-1.231839,0.9799718,3.538329
111.4034,91.30788,-1.25139,0.9799718,3.538329
111.4534,89.78209,-1.127559,0.9798071,3.538329
111.5031,89.0192,-1.016763,0.9799718,3.538329
111.5541,85.84048,-0.9059662,0.9798071,3.538329
111.6037,79.61021,-0.7104437,0.9798071,3.53187
111.6536,77.06723,-0.5018871,0.9798071,3.53187
111.7036,72.99847,-0.3519862,0.9798071,3.53187
111.7532,70.58266,-0.1238762,0.9798071,3.538329
111.8052,68.54827,0.01299073,0.9799718,3.538329
111.8532,65.62385,0.1694087,0.9799718,3.538329
111.9042,67.02249,0.2997562,0.9798071,3.53187
111.9542,99.06393,0.4170697,0.9798071,3.53187
112.0035,102.8784,0.5539367,0.9799718,3.538329
112.0549,100.9712,0.7103546,0.9799718,3.53187
112.1036,98.9368,0.8732921,0.9798071,3.53187
112.1539,93.59654,0.9971226,0.9799718,3.53187
112.2034,88.25631,1.120953,0.9799718,3.53187
112.2532,88.25631,1.205677,0.9799718,3.53187
112.3048,87.74771,1.309959,0.9798071,3.53187
112.3535,82.02603,1.407716,0.9799718,3.53187
112.4033,78.46587,1.485925,0.9798071,3.53187
112.4531,76.94007,1.518513,0.9799718,3.53187
112.5034,75.66859,1.531551,0.9798071,3.53187
112.5551,69.43831,1.525032,0.9799718,3.53187
112.6037,70.20119,1.492445,0.9798071,3.525411
112.6541,76.55863,1.459857,0.9798071,3.53187
112.7039,103.6413,1.407716,0.9799718,3.53187
112.7534,101.9884,1.407716,0.9799718,3.53187
112.8047,99.06393,1.362095,0.9799718,3.525411
112.8542,96.39381,1.316473,0.9799718,3.525411
112.9034,87.74771,1.283886,0.9798071,3.53187
112.9534,86.98483,1.238264,0.9799718,3.525411
113.0039,86.98483,1.186128,0.9799718,3.525411
113.0544,82.02603,1.133987,0.9798071,3.525411
113.1043,78.59301,1.088366,0.9798071,3.525411
113.1537,76.17719,1.02971,0.9798071,3.525411
113.204,72.23557,0.9319476,0.9798071,3.53187
113.2533,69.94691,0.8602532,0.9799718,3.525411
113.305,76.30434,0.7429422,0.9799718,3.525411
113.3535,84.44184,0.6386603,0.9798071,3.525411
113.4032,104.4042,0.5343832,0.9799718,3.525411
113.4539,102.8784,0.4561742,0.9799718,3.525411
113.5036,101.0983,0.3388607,0.9799718,3.525411
113.5554,92.07076,0.2085132,0.9798071,3.525411
113.6044,88.12916,0.1433382,0.9798071,3.518952
113.6535,87.49342,0.07816329,0.9798071,3.525411
113.7033,86.98483,0.01950774,0.9798071,3.518952
113.7534,79.73734,-0.04566722,0.9799718,3.525411
113.8051,76.43149,-0.1108422,0.9801366,3.525411
113.8536,73.76136,-0.1629807,0.9798071,3.518952
113.9034,70.70979,-0.2607408,0.9799718,3.525411
113.954,68.16683,-0.3324327,0.9799718,3.518952
114.0034,65.87814,-0.3650202,0.9798071,3.518952
114.0548,83.80611,-0.4367122,0.9798071,3.518952
114.1036,103.6413,-0.4953701,0.9798071,3.518952
114.1541,103.0055,-0.5279552,0.9799718,3.518952
114.2043,99.82683,-0.5670597,0.9798071,3.518952
114.2541,98.30104,-0.5996472,0.9799718,3.518952
114.3054,90.67213,-0.6387517,0.9798071,3.518952
114.3538,87.87486,-0.6583052,0.9799718,3.518952
114.404,87.23911,-0.6908926,0.9798071,3.518952
114.4544,86.98483,-0.7039266,0.9798071,3.518952
114.5036,82.40748,-0.7169607,0.9798071,3.518952
114.5554,74.26996,-0.7299971,0.9798071,3.518952
114.6041,69.81975,-0.7299971,0.9799718,3.512493
114.6542,69.43831,-0.7625822,0.9798071,3.518952
114.7041,66.38674,-0.7756186,0.9798071,3.518952
114.7544,63.58947,-0.7951697,0.9798071,3.518952
114.8047,75.03284,-0.8147231,0.9798071,3.512493
114.8542,102.1155,-0.8342742,0.9798071,3.512493
114.9037,104.1499,-0.8538276,0.9798071,3.512493
114.9534,101.9884,-0.8473106,0.9799718,3.512493
115.0039,99.44539,-0.8473106,0.9799718,3.512493
115.055,93.978,-0.8538276,0.9798071,3.512493
115.1034,87.23911,-0.8538276,0.9798071,3.512493
115.1534,86.85767,-0.8473106,0.9799718,3.512493
115.2041,86.34908,-0.8277572,0.9798071,3.512493
115.2535,80.11879,-0.7951697,0.9798071,3.512493
115.3044,74.90571,-0.7495481,0.9798071,3.512493
115.3534,71.09124,-0.6648222,0.9798071,3.512493
115.4038,68.67542,-0.5409917,0.9798071,3.506034
115.4544,66.76819,-0.4106417,0.9799718,3.512493
115.5037,65.11525,-0.2998452,0.9799718,3.512493
115.5545,61.42795,-0.1564637,0.9799718,3.512493
115.6036,63.58947,-0.01959675,0.9798071,3.512493
115.6539,99.57254,0.1172678,0.9798071,3.512493
115.7041,101.6069,0.2280643,0.9798071,3.506034
115.7539,98.1739,0.3584142,0.9798071,3.506034
115.8046,97.02956,0.4757277,0.9799718,3.512493
115.8537,88.63776,0.5604513,0.9798071,3.506034
115.9034,85.84048,0.6647332,0.9799718,3.506034
115.9538,85.45904,0.7755296,0.9799718,3.512493
116.0034,85.07759,0.8798067,0.9799718,3.506034
116.0544,77.95727,0.9840837,0.9799718,3.506034
116.1037,73.25277,1.049259,0.9799718,3.506034
116.1539,70.20119,1.081846,0.9799718,3.506034
116.2042,68.29397,1.107919,0.9798071,3.506034
116.2536,66.64104,1.1014,0.9798071,3.506034
116.3044,64.09807,1.081846,0.9798071,3.506034
116.3537,67.91252,1.036225,0.9799718,3.506034
116.4039,101.4798,0.9319476,0.9799718,3.506034
116.4536,101.7341,0.8798067,0.9799718,3.506034
116.5034,98.30104,0.8015977,0.9798071,3.506034
116.5555,93.85085,0.7233887,0.9799718,3.506034
116.604,85.45904,0.6582137,0.9799718,3.506034
116.6539,84.82329,0.6256263,0.9798071,3.506034
116.704,85.07759,0.5865241,0.9798071,3.506034
116.7537,82.02603,0.5474172,0.9799718,3.506034
116.805,74.52426,0.4887617,0.9799718,3.506034
116.8536,73.37991,0.4626912,0.9798071,3.499574
116.9036,69.31116,0.4235868,0.9799718,3.506034
116.9543,67.02249,0.3453777,0.9799718,3.506034
117.0042,65.24241,0.2997562,0.9799718,3.506034
117.0544,70.9641,0.2345813,0.9798071,3.506034
117.1039,103.2598,0.1498553,0.9798071,3.506034
117.1539,104.277,0.1042337,0.9798071,3.499574
117.204,98.55534,0.07816329,0.9798071,3.499574
117.2536,96.39381,0.01950774,0.9798071,3.506034
117.3049,86.73053,-0.0391502,0.9798071,3.499574
117.3534,85.45904,-0.08477172,0.9798071,3.499574
117.4034,85.58618,-0.1238762,0.9798071,3.499574
117.454,85.58618,-0.1694977,0.9798071,3.506034
117.5039,77.83012,-0.2281557,0.9798071,3.499574
117.5554,73.50706,-0.2933282,0.9796425,3.499574
117.6037,71.09124,-0.3128817,0.9799718,3.499574
117.6539,68.29397,-0.3454692,0.9799718,3.499574
117.704,66.76819,-0.3845737,0.9798071,3.499574
117.7536,63.97092,-0.4301952,0.9799718,3.499574
117.8044,85.45904,-0.5084042,0.9799718,3.499574
117.8534,101.0983,-0.5670597,0.9798071,3.493115
117.9045,104.277,-0.5996472,0.9798071,3.499574
117.954,100.0811,-0.6192006,0.9799718,3.499574
118.0037,97.9196,-0.6452687,0.9798071,3.499574
118.0551,88.25631,-0.6908926,0.9798071,3.493115
118.1036,86.98483,-0.6974096,0.9798071,3.499574
118.1538,86.98483,-0.7039266,0.9799718,3.493115
118.204,82.78893,-0.7169607,0.9798071,3.493115
118.254,76.43149,-0.7365142,0.9798071,3.499574
118.3045,73.50706,-0.7495481,0.9799718,3.493115
118.3537,70.20119,-0.7625822,0.9799718,3.493115
118.404,69.05686,-0.7951697,0.9798071,3.493115
118.454,66.76819,-0.8082061,0.9798071,3.493115
118.5043,64.73381,-0.8212401,0.9799718,3.493115
118.5545,77.57583,-0.8603446,0.9799718,3.499574
118.6036,106.3114,-0.8733787,0.9798071,3.493115
118.654,105.5485,-0.8733787,0.9798071,3.493115
118.7046,102.8784,-0.8668616,0.9799718,3.493115
118.7543,99.19109,-0.8668616,0.9799718,3.493115
118.8048,90.79928,-0.8733787,0.9798071,3.493115
118.8542,87.87486,-0.8668616,0.9798071,3.493115
118.9035,88.12916,-0.8277572,0.9798071,3.493115
118.954,87.49342,-0.7365142,0.9798071,3.486656
119.0039,77.44867,-0.5996472,0.9799718,3.493115
119.0545,74.77856,-0.4301952,0.9799718,3.493115
119.1037,71.47269,-0.2998452,0.9799718,3.493115
119.1545,69.56546,-0.1434273,0.9798071,3.493115
119.2045,67.53107,-4.570812e-05,0.9799718,3.493115
119.2536,65.36956,0.1237872,0.9799718,3.486656
119.305,68.16683,0.2085132,0.9799718,3.493115
119.3536,97.02956,0.3062733,0.9799718,3.493115
119.4042,105.4214,0.4170697,0.9799718,3.486656
119.454,101.0983,0.5083151,0.9798071,3.486656
119.5042,99.06393,0.5800048,0.9799718,3.486656
119.5551,94.10515,0.6386603,0.9798071,3.486656
119.6044,88.5106,0.6973206,0.9798071,3.493115
119.6534,88.5106,0.7494568,0.9799718,3.486656
119.7045,86.85767,0.7885637,0.9799718,3.486656
119.7539,80.37309,0.8341852,0.9799718,3.486656
119.8052,75.41429,0.8863261,0.9799718,3.486656
119.8535,73.50706,0.8863261,0.9799718,3.486656
119.9041,71.47269,0.8472192,0.9799718,3.486656
119.9538,68.80257,0.795083,0.9799718,3.486656
120.0041,72.61702,0.7299081,0.9799718,3.486656
120.0548,96.52097,0.6516991,0.9798071,3.486656
120.104,105.1671,0.6125922,0.9798071,3.486656
120.1538,102.497,0.5930387,0.9798071,3.486656
120.2046,99.95398,0.5474172,0.9798071,3.486656
120.2546,93.2151,0.5278686,0.9799718,3.480197
120.3055,88.38345,0.5083151,0.9799718,3.480197
120.3543,88.63776,0.4952787,0.9798071,3.480197
120.4036,88.7649,0.4887617,0.9798071,3.480197
120.4544,81.64457,0.4561742,0.9798071,3.480197
120.5043,76.94007,0.4626912,0.9799718,3.486656
120.5551,73.12562,0.4431402,0.9799718,3.480197
120.6045,70.70979,0.4301062,0.9799718,3.480197
120.6544,68.29397,0.4170697,0.9799718,3.486656
120.7038,68.29397,0.3779652,0.9798071,3.480197
120.7535,99.82683,0.3584142,0.9799718,3.480197
120.805,105.93,0.3453777,0.9798071,3.480197
120.8541,102.497,0.3388607,0.9798071,3.480197
120.9041,99.31824,0.3193097,0.9798071,3.480197
120.9537,96.64812,0.2867222,0.9799718,3.480197
121.0045,87.49342,0.2541347,0.9798071,3.473738
121.0546,87.36626,0.2150302,0.9798071,3.473738
121.1041,86.98483,0.1889598,0.9798071,3.480197
121.1543,78.97446,0.1563723,0.9799718,3.480197
121.2036,75.79574,0.0846827,0.9798071,3.480197
121.2548,72.10844,0.03254177,0.9798071,3.473738
121.3055,70.70979,-0.04566722,0.9798071,3.473738
121.3542,67.65823,-0.09780575,0.9798071,3.480197
121.404,65.87814,-0.1369102,0.9799718,3.473738
121.4546,75.66859,-0.1890512,0.9799718,3.473738
121.5046,92.57936,-0.2672602,0.9799718,3.473738
121.5555,104.0227,-0.3063647,0.9798071,3.473738
121.6045,102.2427,-0.3193987,0.9798071,3.473738
121.6536,100.0811,-0.3585032,0.9799718,3.473738
121.7045,91.94361,-0.4041247,0.9798071,3.473738
121.754,87.87486,-0.4432292,0.9798071,3.467279
121.8052,87.36626,-0.4888507,0.9799718,3.473738
121.8538,85.45904,-0.5344746,0.9799718,3.473738
121.9036,79.22876,-0.5605427,0.9798071,3.473738
121.9545,74.26996,-0.5931302,0.9799718,3.467279
122.0046,71.59984,-0.6257176,0.9798071,3.467279
122.0553,69.05686,-0.6648222,0.9798071,3.473738
122.1039,67.78539,-0.7104437,0.9798071,3.467279
122.1543,64.09807,-0.7299971,0.9798071,3.467279
122.2043,63.84377,-0.7560652,0.9798071,3.467279
122.2537,84.44184,-0.7821357,0.9799718,3.467279
122.3057,104.5313,-0.7951697,0.9798071,3.467279
122.3547,103.0055,-0.8016891,0.9799718,3.467279
122.4038,100.4626,-0.8016891,0.9798071,3.467279
122.4541,98.55534,-0.8016891,0.9798071,3.467279
122.5046,98.42819,-0.8212401,0.9798071,3.467279
122.5553,88.25631,-0.8212401,0.9798071,3.467279
122.6041,87.87486,-0.8147231,0.9799718,3.467279
122.6538,83.67896,-0.8147231,0.9798071,3.467279
122.7037,76.94007,-0.8212401,0.9798071,3.467279
122.7538,74.26996,-0.8342742,0.9799718,3.467279
122.8048,70.70979,-0.8342742,0.9799718,3.467279
122.8545,69.05686,-0.8473106,0.9799718,3.460819
122.9037,67.14964,-0.8473106,0.9799718,3.467279
122.9542,64.47952,-0.8538276,0.9799718,3.467279
123.004,71.47269,-0.8668616,0.9798071,3.467279
123.0556,98.42819,-0.8733787,0.9798071,3.460819
123.1047,102.7513,-0.8538276,0.9798071,3.460819
123.1546,101.3526,-0.7625822,0.9798071,3.467279
123.2036,99.31824,-0.6387517,0.9799718,3.460819
123.2543,94.10515,-0.4627827,0.9798071,3.460819
123.3051,87.62056,-0.3193987,0.9798071,3.460819
123.3542,87.49342,-0.1434273,0.9798071,3.460819
123.404,86.47623,0.05209522,0.9799718,3.460819
123.4547,82.40748,0.2150302,0.9798071,3.460819
123.5044,77.57583,0.3323437,0.9798071,3.460819
123.5546,71.59984,0.4822447,0.9798071,3.460819
123.6045,69.94691,0.5800048,0.9798071,3.460819
123.6547,67.91252,0.6973206,0.9799718,3.460819
123.7043,64.73381,0.8407046,0.9798071,3.460819
123.7541,73.37991,0.9515011,0.9798071,3.460819
123.8051,100.7169,1.042744,0.9798071,3.460819
123.8539,104.4042,1.114434,0.9799718,3.460819
123.9046,101.4798,1.186128,0.9798071,3.460819
123.9538,97.9196,1.218716,0.9799718,3.460819
124.0042,93.72369,1.283886,0.9798071,3.460819
124.0553,87.11198,1.309959,0.9799718,3.460819
124.104,86.60338,1.316473,0.9799718,3.460819
124.1549,86.34908,1.303439,0.9798071,3.45436
124.2037,78.72016,1.270852,0.9799718,3.45436
124.2538,75.03284,1.23175,0.9798071,3.45436
124.3052,72.99847,1.147021,0.9796425,3.45436
124.3543,70.70979,1.107919,0.9799718,3.45436
124.404,68.29397,1.042744,0.9799718,3.45436
124.4543,68.67542,0.9384622,0.9798071,3.45436
124.5046,82.15317,0.8276657,0.9798071,3.45436
124.5557,104.5313,0.7429422,0.9798071,3.45436
124.6045,101.4798,0.7103546,0.9799718,3.45436
124.654,99.19109,0.6256263,0.9799718,3.45436
124.7043,91.30788,0.5604513,0.9798071,3.447901
