t_sec,abp_mmHg,resp_arbunit,spo2_unitless,scon_muS
0,112.2874,-2.0323,1.269859,1.225949
0.04916622,112.1602,-2.050355,1.269859,1.225949
0.1004826,108.3458,-2.058688,1.269694,1.225949
0.1502649,106.4386,-2.082298,1.269859,1.225949
0.1993943,96.52097,-2.083687,1.269859,1.225949
0.250049,95.63092,-2.083687,1.269859,1.225949
0.2998066,95.63092,-2.080909,1.269859,1.225949
0.3510381,90.92643,-2.051744,1.269694,1.232408
0.401016,86.34908,-2.036466,1.269694,1.225949
0.4493503,82.91606,-2.014245,1.269859,1.225949
0.4992289,78.84731,-1.961469,1.269859,1.225949
0.5490511,76.55863,-1.88786,1.26953,1.21949
0.6002745,75.41429,-1.79203,1.269694,1.225949
0.6507472,73.37991,-1.100385,1.269694,1.225949
0.6995203,77.44867,-0.6990081,1.269859,1.225949
0.7495152,104.7856,-0.4309607,1.269859,1.225949
0.7990931,113.9403,-0.0545835,1.26953,1.225949
0.8501173,111.0159,0.2079083,1.269694,1.225949
0.9006404,108.4729,0.3884583,1.269859,1.225949
0.9499563,103.6413,0.5356759,1.269694,1.225949
0.9997655,97.15671,0.5926186,1.269859,1.21949
1.049554,97.02956,0.6245621,1.269859,1.225949
1.100564,96.01237,0.6565056,1.269694,1.21949
1.150512,89.2735,0.6662275,1.269859,1.225949
1.199251,85.20473,0.6745605,1.269694,1.225949
1.249051,82.15317,0.6703937,1.269859,1.21949
1.299804,79.73734,0.6578944,1.269859,1.225949
1.351058,77.83012,0.6384507,1.269859,1.225949
1.401054,75.92289,0.6134515,1.269694,1.225949
1.449332,91.30788,0.5884519,1.269859,1.225949
1.49976,113.0503,0.5523421,1.269859,1.225949
1.549471,113.3046,0.514843,1.269859,1.225949
1.600011,108.0915,0.4606783,1.269859,1.21949
1.649977,105.1671,0.4287348,1.269859,1.225949
1.699776,96.77527,0.3940138,1.269859,1.225949
1.749758,96.77527,0.355126,1.269859,1.225949
1.799508,95.75809,0.3148494,1.269694,1.225949
1.851114,90.67213,0.264851,1.269694,1.225949
1.900878,85.96764,0.2065196,1.269859,1.225949
1.949235,82.78893,0.1731873,1.269694,1.225949
1.999149,80.50024,0.1342995,1.269859,1.225949
2.049152,79.3559,0.05513511,1.270024,1.225949
2.100676,76.17719,-0.004585109,1.269859,1.225949
2.150409,81.64457,-0.08236022,1.269859,1.225949
2.199052,113.3046,-0.1226368,1.269694,1.21949
2.250062,114.0675,-0.2073567,1.269859,1.225949
2.299799,111.3974,-0.2851318,1.269859,1.21949
2.350343,108.7272,-0.3462413,1.269859,1.21949
2.400629,99.82683,-0.3795736,1.269694,1.21949
2.45014,94.86804,-0.4365163,1.269859,1.225949
2.499222,94.48659,-0.5073471,1.269859,1.21949
2.549008,94.48659,-0.661509,1.269694,1.21949
2.600142,86.09478,-0.9573331,1.269694,1.225949
2.650974,83.42466,-1.111495,1.269859,1.21949
2.698965,79.3559,-1.155938,1.269694,1.21949
2.749883,76.81293,-1.246213,1.269859,1.21949
2.799631,76.05004,-1.386486,1.269694,1.21949
2.850878,73.12562,-1.657311,1.269859,1.21949
2.900324,75.28716,-1.746197,1.269859,1.225949
2.949258,109.1087,-1.867027,1.269694,1.21949
2.999235,114.0675,-1.904526,1.269859,1.21949
3.049,111.7788,-1.925359,1.269694,1.21949
3.100713,109.1087,-1.94758,1.269859,1.21949
3.149975,101.4798,-1.967024,1.269694,1.21949
3.200186,96.01237,-1.987857,1.269694,1.21949
3.249075,94.86804,-2.014245,1.270024,1.21949
3.299284,94.86804,-2.030911,1.269859,1.21949
3.350048,94.48659,-2.0323,1.269859,1.225949
3.400748,83.29751,-2.042022,1.269859,1.21949
3.450011,79.22876,-2.050355,1.269694,1.225949
3.499459,77.32152,-2.082298,1.269694,1.21949
3.549741,75.79574,-2.093409,1.269694,1.21949
3.601015,73.76136,-2.06841,1.269859,1.21949
3.650877,75.41429,-2.026744,1.269694,1.21949
3.70019,93.978,-2.0073,1.269859,1.21949
3.750083,109.7444,-1.944803,1.269859,1.225949
3.79927,110.253,-1.854528,1.269859,1.21949
3.850372,107.5829,-1.62259,1.269859,1.21949
3.900752,103.0055,-0.7392847,1.269694,1.21949
3.94931,95.24948,-0.5045696,1.269694,1.21949
4.000016,95.24948,-0.086527,1.269859,1.21949
4.049991,95.24948,0.1926309,1.269859,1.21949
4.101125,89.0192,0.4134575,1.269694,1.21949
4.150164,85.07759,0.5495645,1.269859,1.21949
4.199972,81.39028,0.6176178,1.269694,1.21949
4.249037,78.84731,0.6551169,1.269859,1.21949
4.299078,76.94007,0.6745605,1.269694,1.213031
4.350867,75.66859,0.6745605,1.269859,1.21949
4.400493,73.76136,0.6676162,1.269694,1.21949
4.449117,97.53816,0.6370615,1.270024,1.213031
4.499857,115.339,0.6176178,1.269694,1.21949
4.549312,114.0675,0.5773413,1.269694,1.21949
4.601061,108.9815,0.5190098,1.269694,1.213031
4.650873,107.0743,0.4759557,1.270024,1.21949
4.699348,97.9196,0.4273461,1.269859,1.21949
4.749946,94.10515,0.3662366,1.269694,1.21949
4.799954,94.48659,0.2606843,1.269859,1.213031
4.851116,89.2735,0.1967977,1.269859,1.213031
4.901114,86.09478,0.1259664,1.269859,1.21949
4.949116,82.78893,-0.01569569,1.269859,1.213031
4.999951,79.99165,-0.2573551,1.269859,1.21949
5.049824,78.59301,-0.7323404,1.269859,1.213031
5.101161,76.43149,-1.108718,1.270024,1.21949
5.150783,75.41429,-1.521205,1.270024,1.213031
5.199668,101.7341,-1.933692,1.269859,1.213031
5.249349,115.2118,-2.087854,1.269859,1.213031
5.299296,111.6517,-2.3684,1.269859,1.21949
5.34999,107.5829,-2.639225,1.269859,1.21949
5.400113,105.5485,-2.704501,1.269694,1.21949
5.450153,95.24948,-2.76561,1.269859,1.213031
5.49903,94.74089,-2.879496,1.269859,1.21949
5.549865,94.86804,-3.010047,1.269694,1.213031
5.601084,86.85767,-3.040602,1.269859,1.213031
5.650304,82.78893,-3.153098,1.269859,1.213031
5.700179,79.61021,-3.37948,1.269694,1.213031
5.750195,76.43149,-3.633639,1.269859,1.213031
5.799961,74.52426,-3.710026,1.269859,1.21949
5.850962,73.12562,-3.711414,1.269859,1.21949
5.900325,71.59984,-3.651694,1.269694,1.21949
5.949963,74.14281,-3.585029,1.269859,1.213031
5.999102,107.71,-3.505865,1.269859,1.206571
6.049856,107.4557,-3.373925,1.269694,1.21949
6.100634,108.6001,-3.148932,1.269859,1.213031
6.150281,106.6929,-2.753111,1.269859,1.213031
6.199634,99.44539,-2.132297,1.269859,1.213031
6.250231,95.24948,-1.664255,1.269859,1.213031
6.300097,95.63092,-1.297601,1.269694,1.213031
6.350197,93.978,-0.4865147,1.269859,1.213031
6.401107,86.73053,-0.08374949,1.269694,1.213031
6.44961,83.29751,0.2967945,1.270024,1.213031
6.499981,79.3559,0.4745669,1.269859,1.213031
6.549606,77.19438,0.6287284,1.269859,1.213031
6.600133,75.03284,0.4912331,1.269859,1.206571
6.650025,73.76136,0.5259541,1.269694,1.200112
6.699959,91.81647,0.6134515,1.269859,1.213031
6.749776,113.686,0.642617,1.269859,1.213031
6.799731,112.1602,0.6773381,1.269859,1.213031
6.850861,108.9815,0.7092816,1.269859,1.213031
6.900197,106.6929,0.6912267,1.269859,1.213031
6.950177,96.77527,0.6287284,1.269694,1.213031
6.999979,95.63092,0.5328984,1.269859,1.21949
7.049229,95.88522,0.3940138,1.269859,1.213031
7.100475,90.92643,0.1967977,1.269859,1.206571
7.151252,85.96764,-0.01152942,1.269859,1.213031
7.199477,83.17036,-0.339297,1.269694,1.213031
7.249498,81.64457,-0.6378986,1.269859,1.213031
7.299491,78.59301,-0.8990017,1.269859,1.213031
7.35099,78.08442,-0.9295564,1.269859,1.213031
7.400937,105.1671,-1.147605,1.269859,1.206571
7.449625,116.8647,-1.3226,1.269859,1.213031
7.499741,114.9575,-1.447596,1.269859,1.213031
7.550279,111.3974,-1.53926,1.269859,1.213031
7.600276,109.1087,-1.646201,1.269694,1.213031
7.650269,102.1155,-1.73092,1.269859,1.213031
7.699742,96.39381,-1.835084,1.269859,1.213031
7.749571,96.26666,-1.918414,1.269859,1.213031
7.799513,95.24948,-1.937858,1.269694,1.213031
7.85077,87.74771,-1.972579,1.269859,1.213031
7.900758,84.18755,-1.993412,1.269694,1.213031
7.94973,81.13599,-2.039244,1.269859,1.213031
7.999477,78.21156,-2.089242,1.269859,1.213031
8.049267,76.55863,-2.375345,1.270024,1.213031
8.100487,85.96764,-2.444787,1.269859,1.213031
8.15111,115.7204,-2.44062,1.269859,1.213031
8.199448,114.7032,-2.443398,1.269694,1.21949
8.249272,112.0331,-2.443398,1.269859,1.21949
8.299971,109.7444,-2.444787,1.269859,1.21949
8.350923,99.19109,-2.442009,1.269694,1.21949
8.400743,97.79247,-2.442009,1.269694,1.21949
8.44924,97.9196,-2.442009,1.269859,1.21949
8.499493,94.61374,-2.442009,1.269694,1.21949
8.549483,88.63776,-2.444787,1.269859,1.21949
8.600585,85.07759,-2.442009,1.269859,1.225949
8.650579,82.15317,-2.439232,1.269859,1.21949
8.699718,79.61021,-2.437843,1.269859,1.21949
8.749969,77.70296,-2.435065,1.270024,1.225949
8.799456,94.2323,-2.435065,1.269694,1.225949
8.85022,117.2462,-2.433676,1.269859,1.225949
8.900216,117.119,-2.405899,1.269859,1.225949
8.950187,114.5761,-2.323957,1.269859,1.225949
8.999309,112.1602,-2.289236,1.269859,1.232408
9.049706,111.0159,-2.228127,1.269694,1.232408
9.101009,101.2255,-2.151741,1.269694,1.232408
9.150713,100.5897,-2.051744,1.269859,1.232408
9.199931,100.2083,-1.569814,1.269859,1.232408
9.250035,93.978,-0.9726105,1.269859,1.232408
9.299525,89.40065,-0.7698389,1.269694,1.232408
9.350512,85.45904,-0.429572,1.269859,1.232408
9.400226,83.67896,-0.2212448,1.269859,1.238867
9.449845,82.02603,-0.09486008,1.269859,1.238867
9.500131,79.22876,0.04124701,1.269859,1.238867
9.550199,79.48306,0.1342995,1.269859,1.238867
9.600995,115.4661,0.1773536,1.269859,1.238867
9.650756,118.6448,0.2412406,1.269859,1.238867
9.699973,115.7204,0.2829059,1.269859,1.238867
9.749101,113.0503,0.2606843,1.269859,1.238867
9.799633,107.2015,0.235685,1.269859,1.238867
9.850937,101.8612,0.1981865,1.269694,1.238867
9.90069,101.7341,0.1537431,1.269694,1.238867
9.949591,100.9712,0.1093003,1.269694,1.245327
9.999422,94.2323,0.05235759,1.269859,1.245327
10.04938,92.19792,0.002359198,1.270024,1.245327
10.10026,88.12916,-0.06013905,1.269859,1.245327
10.15123,85.20473,-0.1101374,1.269694,1.245327
10.19948,82.78893,-0.2170785,1.269859,1.245327
10.24941,80.50024,-0.3087423,1.269859,1.245327
10.29998,83.55181,-0.429572,1.269859,1.245327
10.35124,106.0571,-0.5059583,1.269694,1.251786
10.401,114.5761,-0.6073439,1.269694,1.245327
10.44985,113.3046,-0.6601203,1.269859,1.251786
10.49998,111.3974,-0.722618,1.269859,1.251786
10.55001,104.277,-0.7753944,1.269859,1.251786
10.60125,101.4798,-0.8267816,1.269859,1.245327
10.65008,100.9712,-0.8365034,1.270024,1.251786
10.69908,95.24948,-0.8545588,1.269694,1.251786
10.75025,91.30788,-0.8823355,1.269859,1.251786
10.79994,88.12916,-0.9351115,1.269859,1.251786
10.8512,84.69615,-0.9684438,1.269694,1.251786
10.90118,82.15317,-1.00872,1.269859,1.251786
10.94997,80.37309,-1.037886,1.269859,1.251786
10.99957,83.29751,-1.054552,1.269859,1.251786
11.04948,90.67213,-1.103162,1.270024,1.251786
11.10072,115.0847,-1.126773,1.270024,1.251786
11.15025,114.0675,-1.140661,1.269694,1.251786
11.19955,112.2874,-1.715643,1.269859,1.258245
11.24918,108.7272,-2.197572,1.270024,1.258245
11.29997,101.3526,-2.096187,1.269859,1.251786
11.35125,100.844,-2.114242,1.269694,1.258245
11.40093,100.2083,-2.117019,1.269859,1.251786
11.44973,93.85085,-2.121186,1.269859,1.251786
11.49997,89.65494,-2.122575,1.269859,1.251786
11.54977,86.22193,-2.115631,1.269859,1.258245
11.60054,82.91606,-2.123964,1.269859,1.258245
11.6503,80.62739,-2.126741,1.269859,1.258245
11.7003,78.08442,-2.142019,1.269859,1.251786
11.74958,76.55863,-2.146185,1.269859,1.258245
11.79935,85.07759,-2.150352,1.269694,1.251786
11.85012,111.5245,-2.153129,1.270024,1.251786
11.90124,112.9231,-2.175351,1.269859,1.251786
11.94973,111.6517,-2.18785,1.269859,1.251786
11.9997,109.7444,-2.18785,1.269859,1.251786
12.04999,104.9128,-2.190628,1.269694,1.258245
12.10011,98.42819,-2.198961,1.269694,1.258245
12.15012,98.30104,-2.20035,1.269694,1.258245
12.19949,94.10515,-2.198961,1.269859,1.258245
12.24947,91.81647,-2.194795,1.269859,1.258245
12.30024,86.85767,-2.194795,1.269859,1.251786
12.35024,83.17036,-2.193406,1.269859,1.251786
12.40124,80.37309,-2.194795,1.269694,1.251786
12.44977,78.84731,-2.197572,1.269859,1.251786
12.49997,77.32152,-2.201739,1.269859,1.251786
12.55012,73.37991,-2.194795,1.269694,1.251786
12.60125,90.79928,-2.183684,1.269859,1.251786
12.65036,110.6345,-2.158685,1.269859,1.251786
12.70004,110.8888,-2.126741,1.269694,1.251786
12.74946,109.1087,-2.078132,1.269859,1.258245
12.79943,106.6929,-2.004523,1.269859,1.251786
12.85024,102.7513,-1.925359,1.269694,1.251786
12.90011,96.90242,-1.847583,1.269694,1.251786
12.94932,96.52097,-1.182326,1.269859,1.251786
12.99911,96.01237,-0.8003936,1.269694,1.251786
13.04922,92.57936,-0.4615155,1.269859,1.251786
13.10124,87.23911,-0.2129118,1.269694,1.251786
13.15094,83.04321,0.01346978,1.269859,1.251786
13.2002,81.39028,0.1342995,1.269859,1.251786
13.24922,79.3559,0.2245745,1.269859,1.251786
13.29985,77.57583,0.3065163,1.269694,1.251786
13.35132,75.41429,0.3523485,1.269859,1.245327
13.40132,103.5141,0.3690146,1.269694,1.251786
13.44924,112.5417,0.3690146,1.269859,1.251786
13.49956,109.363,0.3495705,1.269694,1.251786
13.54946,105.8028,0.2731841,1.269859,1.251786
13.60076,102.497,0.2051308,1.269694,1.245327
13.65036,96.01237,0.1440213,1.269859,1.245327
13.69948,95.63092,0.07596803,1.269859,1.251786
13.75019,95.63092,0.0009704395,1.269694,1.245327
13.79932,92.45221,-0.04347292,1.269859,1.245327
13.85117,86.22193,-0.1059707,1.269694,1.245327
13.90057,83.17036,-0.1795795,1.269694,1.245327
13.95006,81.64457,-0.2656882,1.269859,1.245327
13.99992,79.3559,-0.3698512,1.269859,1.245327
14.04943,78.84731,-0.4851254,1.269859,1.245327
14.10123,107.4557,-0.6309543,1.269694,1.245327
14.15056,113.1774,-0.682342,1.269859,1.245327
14.19995,111.2702,-0.7323404,1.269694,1.251786
14.24938,108.3458,-0.7795607,1.269859,1.245327
14.29991,106.82,-0.8059492,1.269859,1.245327
14.35093,98.30104,-0.8309484,1.269694,1.245327
14.40031,96.13953,-0.8559476,1.269859,1.245327
14.44944,95.63092,-0.8851131,1.269859,1.245327
14.49923,95.37663,-0.8976129,1.269859,1.245327
14.54923,87.87486,-0.9295564,1.269859,1.245327
14.60036,85.20473,-0.9476113,1.269859,1.245327
14.65015,81.51743,-0.9739993,1.269694,1.245327
14.69969,80.37309,-1.000387,1.269859,1.245327
14.74982,76.81293,-1.00872,1.269694,1.245327
14.79983,82.78893,-1.00872,1.269694,1.245327
14.8506,113.3046,-1.061497,1.269859,1.245327
14.90028,112.2874,-1.530926,1.269694,1.245327
14.94968,110.8888,-2.155907,1.269694,1.245327
14.99971,108.2186,-2.047577,1.269694,1.245327
15.04918,106.6929,-2.060077,1.269859,1.245327
15.10106,97.28386,-2.05591,1.269859,1.238867
15.1503,96.64812,-2.05591,1.269694,1.245327
15.19969,96.13953,-2.058688,1.269859,1.245327
15.24966,91.05358,-2.058688,1.269859,1.245327
15.29973,87.74771,-2.062855,1.269859,1.245327
15.35018,83.80611,-2.065632,1.269694,1.245327
15.40081,81.13599,-2.06841,1.269859,1.245327
15.44951,79.22876,-2.078132,1.269859,1.245327
15.49968,76.17719,-2.085076,1.269859,1.238867
15.5492,80.88168,-2.100353,1.269694,1.238867
15.60053,110.5073,-2.369789,1.269859,1.238867
15.65029,112.2874,-2.386456,1.269859,1.238867
15.70013,110.3802,-2.371178,1.269859,1.245327
15.74951,108.2186,-2.365623,1.269694,1.238867
15.79991,104.1499,-2.355901,1.269859,1.245327
15.85091,97.9196,-2.358679,1.269859,1.238867
15.90041,96.77527,-2.362845,1.269694,1.245327
15.9492,96.77527,-2.362845,1.269859,1.238867
16.0002,89.78209,-2.342012,1.269694,1.238867
16.05015,87.23911,-2.307291,1.269859,1.238867
16.1008,83.80611,-2.24896,1.270024,1.238867
16.15064,79.99165,-2.157296,1.269694,1.238867
16.1992,78.08442,-2.10452,1.269859,1.238867
16.24993,75.41429,-2.043411,1.269859,1.238867
16.29943,73.50706,-1.392042,1.269859,1.238867
16.35043,77.95727,-1.101773,1.269859,1.238867
16.40018,111.2702,-0.9101123,1.269859,1.238867
16.44997,110.8888,-0.7378954,1.269859,1.238867
16.49931,107.2015,-0.4420713,1.269694,1.238867
16.5493,105.93,-0.3295752,1.269859,1.238867
16.60139,98.1739,-0.2143005,1.269694,1.238867
16.65094,95.75809,-0.1490247,1.269859,1.238867
16.69931,95.75809,-0.08930453,1.269694,1.232408
16.7493,94.74089,-0.03791737,1.269859,1.238867
16.79917,87.62056,-0.02402876,1.269859,1.238867
16.85118,83.42466,-0.03930613,1.269694,1.238867
16.90117,82.66177,-0.1031931,1.269859,1.238867
16.94957,80.24594,-0.1545803,1.269859,1.238867
16.99959,78.33871,-0.2254116,1.269859,1.238867
17.04935,77.57583,-0.3851286,1.269859,1.238867
17.10097,88.5106,-0.5004028,1.269694,1.238867
17.15067,113.3046,-0.6378986,1.269694,1.232408
17.20013,109.9987,-0.722618,1.269859,1.238867
17.24943,107.9643,-0.7962269,1.269859,1.238867
17.29955,102.1155,-0.8198373,1.269859,1.238867
17.35054,96.01237,-0.8434477,1.269859,1.232408
17.40112,95.37663,-0.8823355,1.269694,1.238867
17.44998,94.61374,-0.8962242,1.269859,1.238867
17.49994,89.14634,-0.9156678,1.269859,1.232408
17.55042,84.569,-0.9392782,1.269859,1.232408
17.60029,81.77173,-0.9531669,1.269694,1.238867
17.6514,80.11879,-0.9809436,1.269694,1.232408
17.69971,77.32152,-1.053164,1.269859,1.232408
17.74948,75.54144,-1.078163,1.269694,1.232408
17.79967,91.43503,-1.121217,1.269859,1.238867
17.85146,112.796,-1.12955,1.269694,1.232408
17.90018,110.8888,-1.175382,1.269694,1.232408
17.95014,107.2015,-1.53926,1.269859,1.232408
18.00014,105.93,-2.246182,1.269694,1.232408
18.05013,100.3354,-2.12813,1.269859,1.232408
18.10065,97.41101,-2.130908,1.269859,1.232408
18.15054,96.64812,-2.129519,1.269859,1.232408
18.19932,90.16354,-2.126741,1.269859,1.232408
18.25006,86.09478,-2.130908,1.269859,1.232408
18.29962,82.02603,-2.133686,1.269694,1.232408
18.35113,79.3559,-2.139241,1.269859,1.232408
18.40098,77.32152,-2.136463,1.269694,1.232408
18.45029,75.28716,-2.14063,1.269859,1.232408
18.49976,73.76136,-2.135074,1.269859,1.232408
18.55046,103.1327,-2.167018,1.269859,1.232408
18.60041,112.5417,-2.239238,1.269694,1.225949
18.65041,110.253,-2.286459,1.269859,1.232408
18.70025,106.9472,-2.289236,1.269859,1.232408
18.74993,105.0399,-2.289236,1.269859,1.232408
18.7997,97.28386,-2.286459,1.269694,1.232408
18.8503,94.99519,-2.287848,1.269694,1.232408
18.90098,94.2323,-2.289236,1.269859,1.232408
18.95041,89.14634,-2.276736,1.269694,1.225949
19.00041,83.42466,-2.260071,1.269859,1.225949
19.05043,82.78893,-2.239238,1.269859,1.232408
19.10145,78.33871,-2.203128,1.269859,1.225949
19.15073,77.06723,-2.154518,1.269859,1.232408
19.19987,74.39711,-2.117019,1.269859,1.232408
19.24991,74.26996,-2.058688,1.269859,1.232408
19.2995,76.94007,-1.99619,1.269859,1.232408
19.35055,109.4901,-1.928136,1.269859,1.232408
19.40095,109.6173,-1.125384,1.269694,1.232408
19.44943,107.2015,-0.8323371,1.269859,1.232408
19.49962,104.5313,-0.5170689,1.269859,1.232408
19.54942,97.66531,-0.2504108,1.269859,1.232408
19.60124,94.99519,-0.0795827,1.269694,1.232408
19.65129,94.61374,0.09402292,1.269859,1.232408
19.70009,91.81647,0.1884647,1.269859,1.232408
19.74987,86.85767,0.2801284,1.269859,1.232408
19.80008,84.3147,0.3412374,1.269694,1.232408
19.85127,80.62739,0.3495705,1.269694,1.225949
19.90127,79.3559,0.3454042,1.269859,1.225949
19.94927,75.92289,0.3273493,1.269694,1.225949
20.00043,78.08442,0.2481849,1.269859,1.225949
20.04923,88.38345,0.1884647,1.269859,1.232408
20.10037,110.7616,0.131522,1.269859,1.225949
20.15117,107.9643,0.07457928,1.269859,1.225949
20.19957,105.4214,0.0273584,1.269694,1.232408
20.24957,99.69969,-0.005973868,1.269859,1.232408
20.29957,94.48659,-0.07263839,1.270024,1.232408
20.35053,94.61374,-0.1406917,1.269859,1.232408
20.40123,94.48659,-0.2143005,1.270024,1.225949
20.45008,86.09478,-0.3170753,1.269859,1.232408
20.50026,82.91606,-0.3920729,1.269694,1.232408
20.55007,80.62739,-0.4809591,1.269694,1.232408
20.60155,78.59301,-0.6017888,1.269694,1.232408
20.65027,75.92289,-0.6476204,1.269859,1.225949
20.70026,79.86449,-0.7295623,1.269859,1.225949
20.7504,110.7616,-0.7740057,1.269859,1.225949
20.79924,110.3802,-0.8003936,1.269859,1.225949
20.85023,108.8544,-0.8198373,1.269859,1.225949
20.90077,106.82,-0.8531696,1.269694,1.225949
20.9496,100.4626,-0.8837243,1.269694,1.225949
20.99927,95.12233,-0.9198346,1.269694,1.232408
21.05028,94.61374,-0.9378895,1.269859,1.225949
21.10117,94.61374,-0.9517776,1.270024,1.225949
21.15099,89.14634,-0.969833,1.269694,1.225949
21.19969,83.80611,-0.9851099,1.269694,1.225949
21.2497,81.39028,-1.02122,1.269859,1.225949
21.29957,79.10161,-1.086496,1.269859,1.225949
21.35157,76.55863,-2.057299,1.269859,1.225949
21.4009,80.75454,-2.103131,1.269694,1.225949
21.45022,105.0399,-2.082298,1.269859,1.232408
21.50031,111.7788,-2.087854,1.269694,1.225949
21.55023,109.6173,-2.087854,1.269694,1.225949
21.60106,107.3286,-2.089242,1.269694,1.225949
21.65137,99.69969,-2.087854,1.269694,1.225949
21.70019,96.52097,-2.096187,1.269859,1.232408
21.74969,96.52097,-2.100353,1.269694,1.225949
21.79969,94.35944,-2.101742,1.269694,1.225949
21.85051,89.65494,-2.100353,1.269859,1.225949
21.90102,85.07759,-2.101742,1.269859,1.225949
21.95048,81.89888,-2.10452,1.269694,1.225949
21.99994,79.3559,-2.107297,1.269859,1.225949
22.04937,79.10161,-2.111464,1.269694,1.225949
22.10077,75.54144,-2.110075,1.269859,1.225949
22.15137,85.45904,-2.117019,1.269859,1.225949
22.19928,114.1946,-2.118408,1.269859,1.225949
22.25014,112.1602,-2.125352,1.269859,1.225949
22.29952,109.8716,-2.126741,1.269859,1.225949
22.3511,108.3458,-2.115631,1.269694,1.225949
22.40052,100.0811,-2.100353,1.269694,1.225949
22.4504,95.75809,-2.071187,1.269859,1.225949
22.50034,95.50377,-2.025356,1.269694,1.225949
22.55019,93.08795,-1.948969,1.269694,1.225949
22.60089,86.60338,-1.890638,1.269694,1.225949
22.65037,84.569,-1.796196,1.269694,1.232408
22.70019,80.37309,-1.35871,1.269859,1.225949
22.75023,78.33871,-0.7934493,1.269694,1.232408
22.79938,76.55863,-0.6948413,1.269859,1.225949
22.85039,74.26996,-0.301798,1.269694,1.225949
22.90062,83.29751,-0.09347131,1.269694,1.225949
22.94934,98.9368,0.04402453,1.269859,1.232408
23.00019,111.7788,0.1759648,1.269694,1.232408
23.04991,111.2702,0.3037388,1.269859,1.232408
23.10118,107.3286,0.3398486,1.269694,1.232408
23.1506,99.95398,0.3759589,1.269694,1.232408
23.20018,96.77527,0.3759589,1.269859,1.232408
23.25019,96.77527,0.3704034,1.269859,1.238867
23.29993,96.39381,0.3384598,1.269694,1.232408
23.35088,90.16354,0.2884615,1.269694,1.232408
23.40035,86.09478,0.227352,1.270024,1.238867
23.45039,84.3147,0.1301332,1.269694,1.232408
23.50039,81.89888,0.06207942,1.269859,1.232408
23.54986,79.48306,0.01346978,1.269859,1.238867
23.60066,82.66177,-0.08374949,1.269694,1.232408
23.65065,107.0743,-0.1698577,1.269859,1.232408
23.69945,112.6688,-0.2476333,1.269694,1.238867
23.74945,111.0159,-0.3504076,1.269859,1.238867
23.7994,109.6173,-0.4504044,1.269859,1.238867
23.85033,105.0399,-0.5295688,1.269859,1.238867
23.90047,97.66531,-0.6226212,1.269859,1.238867
23.95036,96.90242,-0.687897,1.269859,1.238867
23.9994,97.02956,-0.7392847,1.269859,1.238867
24.04989,94.35944,-0.8115042,1.269859,1.238867
24.10079,86.85767,-0.8448365,1.269694,1.238867
24.15063,84.18755,-0.8837243,1.269694,1.238867
24.19977,81.77173,-0.9184453,1.269694,1.238867
24.24942,79.10161,-0.9656662,1.269859,1.245327
24.29951,77.83012,-0.9795548,1.269694,1.238867
24.3503,109.4901,-1.030942,1.269694,1.245327
24.4006,113.4317,-1.06983,1.269694,1.238867
24.45045,111.906,-1.49065,1.269694,1.238867
24.49945,109.6173,-2.154518,1.269694,1.245327
24.54949,106.82,-2.039244,1.269859,1.245327
24.60059,98.42819,-2.058688,1.269694,1.245327
24.6503,96.64812,-2.061466,1.269694,1.245327
24.70029,96.26666,-2.064243,1.269859,1.245327
24.75017,94.86804,-2.064243,1.269694,1.245327
24.79985,87.23911,-2.065632,1.269694,1.245327
24.85039,83.04321,-2.064243,1.269859,1.238867
24.90104,80.62739,-2.065632,1.269859,1.245327
24.9494,78.21156,-2.069799,1.269859,1.245327
25.00005,75.54144,-2.071187,1.269694,1.245327
25.04938,73.76136,-2.075354,1.269694,1.245327
25.10049,75.03284,-2.114242,1.269694,1.245327
25.15104,110.5073,-2.215627,1.269694,1.245327
25.19938,109.1087,-2.229516,1.269859,1.245327
25.2504,107.4557,-2.22396,1.269694,1.245327
25.3003,104.9128,-2.228127,1.269859,1.238867
25.3514,97.41101,-2.228127,1.269859,1.245327
25.40125,96.13953,-2.232294,1.269694,1.245327
25.44953,95.24948,-2.23646,1.269694,1.245327
25.50011,90.79928,-2.225349,1.269694,1.245327
25.55017,87.23911,-2.230905,1.269859,1.245327
25.60142,83.67896,-2.21285,1.269694,1.245327
25.65125,79.86449,-2.179517,1.269859,1.245327
25.69951,77.06723,-2.12813,1.269694,1.245327
25.75055,75.03284,-2.089242,1.269694,1.245327
25.79982,72.74417,-2.025356,1.269694,1.245327
25.85097,85.58618,-1.946191,1.269694,1.245327
25.90076,104.5313,-1.893415,1.269859,1.245327
25.95057,109.9987,-1.421208,1.269694,1.245327
25.99937,107.2015,-0.7837275,1.269694,1.251786
26.05017,107.3286,-0.5712341,1.269859,1.245327
26.10154,100.3354,-0.2226336,1.269859,1.245327
26.15125,95.88522,-0.01291817,1.269859,1.245327
26.20035,94.99519,0.1759648,1.269859,1.245327
26.24991,94.99519,0.381514,1.269859,1.245327
26.29941,90.03638,0.4704002,1.269694,1.245327
26.35053,84.95044,0.544009,1.269694,1.245327
26.40121,82.15317,0.607896,1.269694,1.245327
26.44937,79.61021,0.6134515,1.269859,1.245327
26.50004,77.83012,0.6176178,1.269694,1.245327
26.54989,75.54144,0.6162291,1.269859,1.245327
26.6009,78.72016,0.5940074,1.269859,1.238867
26.65089,109.6173,0.5467865,1.269694,1.238867
26.69941,108.8544,0.5231766,1.269694,1.245327
26.74941,106.82,0.4815107,1.269694,1.245327
26.79999,103.7684,0.4259573,1.269694,1.245327
26.85049,96.64812,0.3912358,1.269694,1.238867
26.9012,94.10515,0.3467929,1.270024,1.238867
26.94963,93.72369,0.294017,1.269859,1.245327
26.99941,92.57936,0.2634623,1.269694,1.238867
27.05041,91.94361,0.2120751,1.269859,1.238867
27.10153,83.42466,0.1704093,1.269859,1.238867
27.15116,81.00883,0.1120778,1.269694,1.238867
27.20016,78.72016,0.04819132,1.269859,1.245327
27.24998,75.92289,-0.01152942,1.269859,1.238867
27.29988,80.24594,-0.09902635,1.269859,1.238867
27.3504,111.0159,-0.1934681,1.269694,1.238867
27.4004,111.906,-0.2781875,1.269694,1.238867
27.44988,110.1259,-0.3517964,1.269859,1.238867
27.50016,107.3286,-0.4601262,1.269859,1.238867
27.55015,101.8612,-0.5406793,1.269694,1.238867
27.60141,95.37663,-0.5934558,1.269859,1.238867
27.65044,94.74089,-0.6628978,1.269859,1.238867
27.69933,94.48659,-0.7212293,1.269694,1.238867
27.75042,87.36626,-0.7795607,1.269694,1.232408
27.80036,82.53461,-0.8406702,1.269694,1.232408
27.8514,80.62739,-0.8726137,1.269694,1.232408
27.90128,77.95727,-0.9170566,1.269859,1.232408
27.94972,76.43149,-1.290656,1.269859,1.238867
27.99966,74.01566,-2.133686,1.269859,1.238867
28.05046,86.22193,-2.004523,1.269694,1.238867
28.10051,113.0503,-2.026744,1.269694,1.238867
28.15138,112.0331,-2.028133,1.269694,1.232408
28.20003,107.9643,-2.029522,1.269694,1.238867
28.24946,106.1843,-2.030911,1.269859,1.238867
28.2994,100.7169,-2.0323,1.269859,1.232408
28.35072,95.50377,-2.035077,1.269694,1.232408
28.4014,94.2323,-2.043411,1.269694,1.232408
28.4504,93.08795,-2.043411,1.269694,1.232408
28.4994,87.49342,-2.043411,1.269694,1.232408
28.55012,83.55181,-2.0448,1.269859,1.232408
28.60115,80.50024,-2.0448,1.269694,1.232408
28.65037,77.32152,-2.046188,1.269859,1.232408
28.69996,76.30434,-2.048966,1.269859,1.232408
28.74961,73.25277,-2.047577,1.269694,1.232408
28.80002,75.41429,-2.048966,1.269694,1.232408
28.85075,109.6173,-2.053133,1.269859,1.232408
28.90148,111.6517,-2.061466,1.269859,1.232408
28.94961,109.8716,-2.072576,1.269694,1.232408
28.99948,106.9472,-2.086465,1.269859,1.232408
29.04957,105.6757,-2.07952,1.269694,1.232408
29.10057,94.99519,-2.069799,1.269694,1.232408
29.15139,94.61374,-2.033689,1.269859,1.232408
29.20015,92.32506,-1.958691,1.269694,1.232408
29.25054,88.5106,-1.892026,1.269859,1.232408
29.30023,83.80611,-1.814251,1.269694,1.232408
29.35079,81.13599,-1.636479,1.269694,1.225949
29.40053,77.83012,-1.148994,1.269694,1.232408
29.44981,75.16,-0.7281736,1.269859,1.232408
29.49971,72.74417,-0.3962397,1.269859,1.232408
29.54976,81.13599,-0.1393029,1.269694,1.225949
29.60065,112.2874,0.05513511,1.269694,1.225949
29.65139,112.4145,0.2398518,1.269694,1.225949
29.6996,105.93,0.4106799,1.269694,1.232408
29.74948,103.6413,0.5023437,1.269694,1.232408
29.79947,99.69969,0.5620639,1.269859,1.232408
29.85044,93.59654,0.5981742,1.269694,1.232408
29.90106,93.46941,0.6203954,1.269694,1.232408
29.95011,93.2151,0.6315064,1.269859,1.225949
30.00022,88.89205,0.6259509,1.269694,1.225949
30.04974,84.95044,0.6162291,1.269859,1.232408
30.10064,82.15317,0.5898411,1.269859,1.225949
30.15059,79.61021,0.5537308,1.269694,1.225949
30.20012,77.19438,0.5162323,1.269694,1.225949
30.24983,76.81293,0.4426234,1.269694,1.232408
30.30047,107.5829,0.3634591,1.269694,1.232408
30.35159,113.5589,0.3190162,1.269859,1.232408
30.40097,108.8544,0.2829059,1.269694,1.225949
30.45059,106.9472,0.2051308,1.269694,1.225949
30.5006,101.3526,0.1704093,1.269694,1.225949
30.55048,95.37663,0.1148558,1.269694,1.225949
30.60159,94.61374,0.07319051,1.269694,1.225949
30.65147,94.61374,0.04541329,1.269859,1.225949
30.69945,88.7649,-0.001807591,1.269694,1.232408
30.75059,84.0604,-0.04069489,1.269694,1.225949
30.79939,82.53461,-0.1031931,1.269859,1.232408
30.8505,79.48306,-0.1809683,1.269859,1.225949
30.90086,77.06723,-0.2684657,1.269694,1.225949
30.94938,80.50024,-0.3865174,1.269694,1.225949
30.99938,112.0331,-0.4823479,1.269859,1.232408
31.04938,112.1602,-0.5365131,1.269859,1.225949
31.10038,110.3802,-0.5615123,1.269694,1.225949
31.15038,108.2186,-0.6198437,1.269694,1.225949
31.20038,102.7513,-0.6545647,1.269694,1.225949
31.25012,96.64812,-0.7476177,1.269859,1.225949
31.29963,96.13953,-0.7892831,1.269694,1.225949
31.35038,95.24948,-0.8184485,1.269694,1.225949
31.40038,89.65494,-0.8587251,1.269859,1.225949
31.45038,85.33189,-0.8781688,1.269859,1.225949
31.50039,82.53461,-0.9073347,1.269859,1.225949
31.55011,80.11879,-0.9295564,1.269859,1.225949
31.60164,77.57583,-0.9920542,1.269694,1.225949
31.65038,75.92289,-1.18927,1.269694,1.225949
31.69987,91.30788,-2.18924,1.269694,1.225949
31.7503,110.7616,-2.050355,1.269694,1.225949
31.80038,109.2358,-2.062855,1.269694,1.225949
31.85163,108.0915,-2.060077,1.269694,1.225949
31.9008,106.1843,-2.058688,1.269859,1.225949
31.95058,99.31824,-2.057299,1.269694,1.232408
31.99984,97.28386,-2.057299,1.269694,1.232408
32.04963,96.77527,-2.058688,1.269859,1.225949
32.10063,93.08795,-2.058688,1.269694,1.225949
32.1504,87.23911,-2.058688,1.269694,1.225949
32.2006,84.18755,-2.060077,1.269694,1.225949
32.25058,80.24594,-2.061466,1.269694,1.225949
32.30038,78.33871,-2.064243,1.269859,1.225949
32.35162,75.41429,-2.071187,1.269859,1.225949
32.4015,74.39711,-2.075354,1.269694,1.225949
32.44986,92.7065,-2.086465,1.269694,1.225949
32.50058,111.906,-2.137852,1.269694,1.225949
32.55042,111.1431,-2.228127,1.269694,1.225949
32.60138,108.6001,-2.229516,1.26953,1.225949
32.65106,106.6929,-2.226738,1.269694,1.225949
32.69948,99.31824,-2.225349,1.269694,1.225949
32.75063,97.15671,-2.218405,1.269859,1.225949
32.80018,96.13953,-2.178128,1.269694,1.225949
32.85109,92.45221,-2.107297,1.269694,1.225949
32.90065,86.60338,-2.067021,1.269694,1.21949
32.95038,83.80611,-2.015634,1.269694,1.225949
32.99957,79.86449,-1.930914,1.269694,1.225949
33.05062,78.46587,-1.87536,1.269694,1.21949
33.10144,76.17719,-1.528149,1.270024,1.21949
33.1512,74.01566,-0.7656726,1.269859,1.21949
33.19941,78.33871,-0.7476177,1.269859,1.225949
33.24985,96.13953,-0.3698512,1.269694,1.21949
33.30043,110.253,-0.1226368,1.269694,1.225949
33.3507,107.9643,0.07180125,1.269859,1.21949
33.40062,106.0571,0.1842979,1.269694,1.225949
33.45037,99.95398,0.2995721,1.269694,1.225949
33.49993,95.50377,0.3787364,1.269694,1.225949
33.5495,95.24948,0.4440122,1.269859,1.225949
33.6007,93.08795,0.4856775,1.269694,1.225949
33.65138,88.89205,0.4898438,1.269694,1.21949
33.69955,84.18755,0.4967881,1.269859,1.225949
33.7502,81.39028,0.4717889,1.269694,1.225949
33.80018,79.61021,0.4259573,1.269694,1.225949
33.85104,77.19438,0.3634591,1.269694,1.21949
33.90065,79.22876,0.2842947,1.269694,1.21949
33.94949,94.48659,0.2065196,1.269859,1.225949
34.00062,111.5245,0.1287439,1.269859,1.21949
34.05045,110.8888,0.08846737,1.269694,1.225949
34.10145,106.9472,0.02319212,1.270024,1.21949
34.15084,102.2427,-0.02958431,1.269859,1.21949
34.19945,95.50377,-0.08930453,1.269694,1.21949
34.25045,95.12233,-0.147636,1.269694,1.21949
34.30029,94.74089,-0.2143005,1.269694,1.225949
34.35087,89.5278,-0.3309639,1.269694,1.21949
34.40157,84.95044,-0.4226277,1.269694,1.225949
34.45006,83.55181,-0.5156801,1.269694,1.21949
34.5003,80.24594,-0.589289,1.269694,1.21949
34.55032,77.83012,-0.6656759,1.269694,1.21949
34.6012,75.92289,-0.722618,1.269694,1.21949
34.6512,108.0915,-0.7976161,1.269694,1.21949
34.69962,114.7032,-0.8142823,1.269694,1.225949
34.75033,112.2874,-0.8378927,1.269694,1.21949
34.80032,108.9815,-0.8628919,1.269694,1.21949
34.85144,107.4557,-0.8753912,1.269694,1.21949
34.90064,98.1739,-0.8906686,1.269694,1.225949
34.95034,94.86804,-0.9240009,1.269694,1.225949
35.0001,94.74089,-0.9420558,1.269694,1.21949
35.05007,94.35944,-0.9545556,1.269694,1.21949
35.10082,85.84048,-0.9851099,1.269859,1.21949
35.15149,81.39028,-1.004554,1.269694,1.21949
35.20018,78.84731,-1.035109,1.269694,1.21949
35.25017,76.81293,-1.060108,1.269694,1.21949
35.30018,74.01566,-1.09344,1.269859,1.21949
35.35149,73.12562,-2.122575,1.269859,1.21949
35.40149,81.51743,-2.143408,1.269859,1.225949
35.44955,100.3354,-2.122575,1.269694,1.21949
35.49961,109.8716,-2.108686,1.269694,1.21949
35.54984,107.3286,-2.100353,1.269859,1.21949
35.60119,104.6585,-2.098964,1.269694,1.21949
35.65081,95.63092,-2.098964,1.26953,1.21949
35.69961,93.85085,-2.101742,1.269694,1.225949
35.75055,93.34225,-2.101742,1.269694,1.21949
35.79948,90.41783,-2.098964,1.269859,1.21949
35.85069,84.569,-2.100353,1.26953,1.21949
35.90068,80.75454,-2.101742,1.269694,1.21949
35.94949,78.08442,-2.107297,1.269694,1.225949
36.00008,76.43149,-2.107297,1.269859,1.21949
36.05017,75.66859,-2.112853,1.269694,1.21949
36.10148,72.48988,-2.112853,1.269694,1.21949
36.15066,84.18755,-2.114242,1.269859,1.21949
36.20013,111.2702,-2.119797,1.269694,1.21949
36.25002,110.5073,-2.126741,1.269859,1.21949
36.29968,106.3114,-2.12813,1.269694,1.21949
36.3507,103.7684,-2.132297,1.269694,1.21949
36.40048,95.12233,-2.132297,1.269694,1.21949
36.45048,93.978,-2.132297,1.269859,1.21949
36.49948,93.08795,-2.130908,1.269694,1.21949
36.55001,89.2735,-2.12813,1.269694,1.213031
36.60151,83.55181,-2.125352,1.269694,1.21949
36.6513,80.75454,-2.115631,1.269694,1.21949
36.70013,77.19438,-2.10452,1.269859,1.21949
36.74954,75.16,-2.073965,1.269859,1.21949
36.80029,72.74417,-2.030911,1.269694,1.21949
36.85048,89.65494,-1.968413,1.269694,1.21949
36.90047,112.4145,-1.917025,1.269859,1.21949
36.94969,113.8132,-1.860083,1.269859,1.21949
37.00043,107.8372,-1.76703,1.269694,1.21949
37.05003,106.82,-1.122606,1.269694,1.213031
37.10146,100.844,-0.690675,1.269859,1.213031
37.15077,95.37663,-0.3851286,1.269859,1.21949
37.19968,94.61374,-0.1490247,1.269859,1.21949
37.25006,94.61374,0.102356,1.269694,1.213031
37.30011,88.38345,0.264851,1.269694,1.213031
37.35098,84.82329,0.3954026,1.269859,1.21949
37.40168,82.78893,0.4842888,1.269694,1.21949
37.44993,80.37309,0.5301204,1.269694,1.213031
37.50005,77.95727,0.5606751,1.269859,1.213031
37.55068,85.71333,0.5634527,1.269694,1.213031
37.60082,102.6241,0.5634527,1.269694,1.213031
37.65167,111.5245,0.5495645,1.269694,1.213031
37.69982,109.2358,0.5342872,1.269859,1.21949
37.75068,107.71,0.4940106,1.269694,1.213031
37.80043,101.9884,0.419013,1.269694,1.21949
37.85103,99.31824,0.3467929,1.269859,1.213031
37.90082,99.19109,0.2787396,1.269694,1.213031
37.94955,98.80965,0.1967977,1.269694,1.213031
38.00002,92.7065,0.1218001,1.269694,1.213031
38.04993,90.41783,0.04958007,1.269694,1.21949
38.10142,88.00201,-0.01014066,1.269859,1.213031
38.1508,84.0604,-0.07124963,1.269694,1.213031
38.20055,85.07759,-0.1573583,1.269694,1.213031
38.24955,111.5245,-0.2712432,1.269694,1.21949
38.30043,115.9747,-0.3712405,1.269859,1.213031
38.35155,114.3218,-0.4212389,1.269694,1.213031
38.40131,112.6688,-0.5254019,1.269859,1.213031
38.4501,111.2702,-0.5698453,1.269694,1.21949
38.5001,103.387,-0.6573428,1.269694,1.213031
38.54984,103.0055,-0.7031744,1.269694,1.213031
38.60157,102.8784,-0.7490065,1.269694,1.213031
38.65131,97.41101,-0.786505,1.269694,1.213031
38.70018,93.08795,-0.8295596,1.269694,1.213031
38.75005,90.03638,-0.8670582,1.269694,1.213031
38.80033,87.23911,-0.9017792,1.269694,1.213031
38.85156,84.569,-0.9295564,1.269694,1.213031
38.901,86.73053,-0.9628887,1.269859,1.213031
38.94957,109.4901,-1.007331,1.269694,1.213031
39.00012,114.1946,-1.040664,1.269694,1.213031
39.05054,113.4317,-1.726754,1.269694,1.213031
39.10054,112.2874,-2.129519,1.269694,1.213031
39.15157,110.7616,-2.043411,1.269694,1.213031
39.19975,105.2942,-2.053133,1.269859,1.213031
39.25027,102.7513,-2.053133,1.269694,1.213031
39.30029,102.7513,-2.051744,1.269859,1.213031
39.35157,98.30104,-2.047577,1.269694,1.206571
39.40121,93.46941,-2.048966,1.269859,1.213031
39.45007,90.79928,-2.047577,1.269694,1.213031
39.49955,87.62056,-2.050355,1.269694,1.213031
39.55033,85.58618,-2.051744,1.269694,1.213031
39.60109,82.91606,-2.058688,1.269694,1.213031
39.65106,84.18755,-2.058688,1.269694,1.213031
39.69965,104.9128,-2.075354,1.269694,1.213031
39.75032,112.5417,-2.103131,1.269694,1.213031
39.80054,111.5245,-2.123964,1.269694,1.213031
39.85054,110.8888,-2.130908,1.269859,1.213031
39.90054,108.8544,-2.12813,1.269859,1.213031
39.9505,103.7684,-2.123964,1.269694,1.213031
39.99967,102.6241,-2.112853,1.269694,1.213031
40.05054,102.8784,-2.085076,1.269694,1.206571
40.10053,98.1739,-2.043411,1.269694,1.213031
40.15131,93.72369,-1.980913,1.269859,1.213031
40.20061,90.41783,-1.917025,1.269694,1.213031
40.25069,88.12916,-1.861472,1.269694,1.206571
40.30068,86.60338,-1.772586,1.269694,1.213031
40.35065,83.42466,-1.305934,1.269694,1.213031
40.40111,81.51743,-0.714285,1.269694,1.206571
40.44983,84.569,-0.5392906,1.269694,1.213031
40.50042,109.9987,-0.2962424,1.269694,1.206571
40.55054,110.5073,-0.06847212,1.269694,1.213031
40.60141,109.2358,0.1009672,1.269694,1.213031
40.65176,108.2186,0.2065196,1.269859,1.213031
40.70053,105.2942,0.2815171,1.269859,1.206571
40.75015,101.7341,0.3342931,1.269694,1.213031
40.80002,100.9712,0.3856807,1.269694,1.213031
40.85169,100.4626,0.4315124,1.269694,1.213031
40.90149,94.61374,0.4509565,1.269859,1.206571
40.95042,92.45221,0.4342904,1.269859,1.213031
41.00038,88.89205,0.3787364,1.269694,1.206571
41.04995,88.5106,0.3231825,1.269694,1.213031
41.10119,85.71333,0.2398518,1.269859,1.213031
41.15096,83.55181,0.1856866,1.269694,1.213031
41.19978,89.90925,0.08707862,1.269859,1.213031
41.25027,108.8544,0.04541329,1.269694,1.213031
41.29995,108.9815,-0.001807591,1.269694,1.206571
41.3512,107.9643,-0.04625044,1.269859,1.213031
41.40054,107.0743,-0.1170818,1.269694,1.206571
41.44954,103.5141,-0.1698577,1.269694,1.213031
41.49982,100.4626,-0.246244,1.269694,1.213031
41.55083,100.2083,-0.3295752,1.269694,1.206571
41.60062,97.79247,-0.3920729,1.269694,1.206571
41.65117,93.85085,-0.4587375,1.269694,1.206571
41.70047,90.67213,-0.5504012,1.269859,1.206571
41.75042,86.98483,-0.583734,1.269694,1.206571
41.80025,85.84048,-0.653176,1.269859,1.206571
41.85098,84.3147,-0.7059519,1.269694,1.206571
41.90152,81.00883,-0.7309511,1.269859,1.206571
41.95067,81.89888,-0.7795607,1.269859,1.213031
42.00052,104.277,-0.8267816,1.269694,1.206571
42.04978,107.71,-0.842059,1.269859,1.206571
42.10155,105.6757,-0.8545588,1.269859,1.213031
42.15059,104.4042,-0.8753912,1.269694,1.206571
42.20028,103.2598,-0.8892798,1.269859,1.213031
42.24978,99.06393,-0.9017792,1.269694,1.206571
42.30062,98.30104,-0.9212233,1.269694,1.206571
42.35154,97.41101,-0.9462225,1.269859,1.206571
42.4011,93.85085,-0.9628887,1.269694,1.206571
42.45032,89.65494,-0.9823323,1.269859,1.206571
42.50056,86.34908,-1.00872,1.269859,1.206571
42.55055,84.44184,-1.029553,1.269694,1.206571
42.60163,82.40748,-1.061497,1.269859,1.213031
42.65158,80.75454,-1.083718,1.269694,1.206571
42.70007,77.95727,-1.112884,1.269694,1.206571
42.75002,76.81293,-1.122606,1.269694,1.206571
42.8008,101.6069,-2.221183,1.269859,1.206571
42.85144,106.0571,-2.260071,1.26953,1.206571
42.90139,104.9128,-2.194795,1.269694,1.206571
42.94963,103.8956,-2.180906,1.269694,1.206571
42.9998,102.3698,-2.173962,1.269694,1.213031
43.05053,99.31824,-2.171184,1.269694,1.206571
43.1018,96.90242,-2.168407,1.269859,1.206571
43.15094,95.75809,-2.165629,1.269694,1.206571
43.19994,91.81647,-2.161463,1.269694,1.206571
43.24975,88.38345,-2.161463,1.269694,1.206571
43.30032,84.569,-2.160074,1.269859,1.206571
43.35154,82.15317,-2.158685,1.269859,1.206571
43.40144,80.24594,-2.158685,1.269694,1.206571
43.4496,79.48306,-2.158685,1.269859,1.206571
43.49994,76.30434,-2.16424,1.269859,1.206571
43.55079,73.88851,-2.160074,1.269694,1.206571
43.6008,99.57254,-2.16424,1.26953,1.206571
43.65176,105.6757,-2.167018,1.269859,1.206571
43.70063,104.1499,-2.169796,1.269859,1.206571
43.75032,103.387,-2.169796,1.269859,1.206571
43.80044,101.9884,-2.168407,1.269694,1.206571
43.85107,98.04675,-2.162851,1.269694,1.206571
43.90057,95.50377,-2.150352,1.269694,1.206571
43.95,94.99519,-2.112853,1.26953,1.200112
43.99978,91.56216,-2.078132,1.269859,1.206571
44.04973,90.79928,-2.028133,1.269694,1.206571
44.10077,85.71333,-1.950358,1.269859,1.206571
44.1506,83.29751,-1.88786,1.269694,1.206571
44.20006,80.62739,-1.819806,1.26953,1.206571
44.25002,78.72016,-1.376764,1.269859,1.206571
44.30019,77.06723,-0.7920606,1.269694,1.200112
44.35059,74.65141,-0.5712341,1.269694,1.206571
44.40131,84.44184,-0.3198529,1.269694,1.206571
44.45037,106.5657,-0.1143037,1.269859,1.206571
44.50058,105.2942,0.1245777,1.269694,1.200112
44.55043,103.7684,0.2717953,1.269694,1.206571
44.60159,102.3698,0.3662366,1.269859,1.200112
44.65146,100.3354,0.4481785,1.269694,1.206571
44.69958,94.99519,0.4815107,1.269859,1.200112
44.75057,94.61374,0.5037324,1.269694,1.200112
44.80042,92.19792,0.517621,1.269694,1.200112
44.85147,90.79928,0.5217873,1.269694,1.200112
44.90063,86.47623,0.5120655,1.269694,1.200112
44.95053,83.67896,0.4759557,1.269694,1.206571
45,83.04321,0.4176242,1.269694,1.200112
45.04975,80.62739,0.3565148,1.269694,1.206571
45.10164,78.33871,0.2704066,1.269694,1.200112
45.15142,103.5141,0.1898534,1.269694,1.200112
45.19976,107.71,0.1245777,1.269694,1.200112
45.24997,105.2942,0.07874555,1.269859,1.206571
45.30072,103.1327,0.02041409,1.269859,1.200112
45.35164,101.4798,-0.02680679,1.269694,1.200112
45.40151,96.90242,-0.0795827,1.269694,1.200112
45.45073,96.52097,-0.1601358,1.269859,1.200112
45.50043,96.90242,-0.2476333,1.269694,1.200112
45.55005,91.94361,-0.3337415,1.269694,1.200112
45.60174,87.23911,-0.4406826,1.269859,1.200112
45.65113,85.33189,-0.5295688,1.269694,1.200112
45.70055,82.91606,-0.5990108,1.269859,1.200112
45.75038,81.39028,-0.6990081,1.269694,1.200112
45.80005,79.10161,-0.7323404,1.269694,1.200112
45.8513,88.89205,-0.7962269,1.269694,1.200112
45.90139,105.8028,-0.8198373,1.269694,1.206571
45.95076,106.5657,-0.8406702,1.269694,1.200112
46.00075,104.4042,-0.8490033,1.269859,1.200112
46.0501,103.8956,-0.8656694,1.269694,1.200112
46.10165,101.0983,-0.9087235,1.269694,1.200112
46.1515,96.52097,-0.9490001,1.269694,1.200112
46.20025,96.26666,-0.9851099,1.269694,1.200112
46.2501,95.50377,-0.9934434,1.269859,1.200112
46.30002,90.79928,-1.015665,1.269694,1.200112
46.35083,87.62056,-1.029553,1.269694,1.200112
46.40174,84.569,-1.051775,1.269859,1.200112
46.4505,82.66177,-1.882304,1.269694,1.200112
46.5001,81.77173,-2.148963,1.269694,1.200112
46.55057,80.11879,-2.071187,1.269859,1.200112
46.60155,81.89888,-2.075354,1.269694,1.200112
46.65125,104.6585,-2.083687,1.269859,1.200112
46.69979,106.3114,-2.087854,1.26953,1.200112
46.74976,105.2942,-2.087854,1.269859,1.200112
46.79975,104.5313,-2.085076,1.269859,1.200112
46.85075,102.7513,-2.085076,1.269859,1.200112
46.90076,98.80965,-2.085076,1.269694,1.200112
46.95075,96.64812,-2.087854,1.269694,1.206571
47.00075,96.52097,-2.087854,1.269694,1.200112
47.05077,93.978,-2.083687,1.269694,1.200112
47.10172,92.32506,-2.083687,1.269859,1.200112
47.15129,88.00201,-2.087854,1.269694,1.200112
47.20017,86.47623,-2.087854,1.269694,1.200112
47.24997,84.3147,-2.093409,1.269694,1.200112
47.30077,78.33871,-2.09202,1.269859,1.200112
47.35074,77.57583,-2.090631,1.269694,1.200112
47.40183,81.39028,-2.096187,1.269694,1.200112
47.45036,109.9987,-2.096187,1.269694,1.200112
47.50024,106.9472,-2.090631,1.269694,1.200112
47.55085,106.4386,-2.071187,1.269694,1.200112
47.60076,106.4386,-2.037855,1.269859,1.193653
47.65122,104.9128,-1.998967,1.26953,1.193653
47.7006,96.52097,-1.936469,1.269859,1.200112
47.75033,96.52097,-1.876749,1.269859,1.193653
47.80041,94.99519,-1.786474,1.269694,1.200112
47.8514,91.05358,-1.625368,1.269694,1.200112
47.90123,88.7649,-0.9115015,1.269859,1.200112
47.95002,85.58618,-0.6156769,1.269694,1.193653
48.00077,84.18755,-0.2795763,1.269694,1.200112
48.0508,82.15317,-0.01430693,1.269694,1.200112
48.10185,81.00883,0.1856866,1.269859,1.193653
48.1518,78.21156,0.4523453,1.269859,1.200112
48.20041,84.95044,0.5398427,1.269694,1.193653
48.24972,105.0399,0.6217846,1.269694,1.193653
48.30085,104.9128,0.706504,1.269694,1.193653
48.35156,102.7513,0.7453918,1.269694,1.200112
48.40154,101.6069,0.7801129,1.269694,1.193653
48.44981,98.1739,0.7912235,1.269694,1.193653
48.49998,95.88522,0.7995565,1.269694,1.193653
48.55051,95.37663,0.8065008,1.269859,1.193653
48.60147,94.99519,0.7981678,1.269859,1.200112
48.65149,90.41783,0.7731686,1.269694,1.200112
48.7001,88.00201,0.7551137,1.269859,1.193653
48.75041,85.71333,0.7273364,1.269694,1.193653
48.80016,83.80611,0.6912267,1.269694,1.200112
48.85088,81.51743,0.642617,1.269694,1.200112
48.9015,80.11879,0.5940074,1.269694,1.193653
48.95059,95.75809,0.5620639,1.26953,1.193653
49.00014,105.4214,0.5301204,1.269694,1.193653
49.05095,105.4214,0.4884551,1.269694,1.193653
49.10088,102.3698,0.4287348,1.269694,1.193653
49.15136,101.6069,0.3801252,1.269694,1.200112
49.20012,97.41101,0.328738,1.269694,1.193653
49.25053,95.88522,0.2565179,1.269694,1.193653
49.29995,95.50377,0.2051308,1.269694,1.193653
49.35174,95.37663,0.07319051,1.269694,1.193653
49.40108,88.89205,-0.08791576,1.269694,1.193653
49.44977,87.23911,-0.1948569,1.269694,1.200112
49.50009,84.0604,-0.3420745,1.269694,1.193653
49.55036,82.91606,-0.6045663,1.269694,1.193653
49.60161,79.99165,-0.8115042,1.269859,1.200112
49.65145,79.48306,-0.8351147,1.26953,1.193653
49.70044,101.4798,-0.8892798,1.269694,1.193653
49.75036,105.2942,-0.9295564,1.269694,1.193653
49.8,103.8956,-1.000387,1.269694,1.193653
49.85125,103.1327,-1.085107,1.269694,1.193653
49.90143,101.8612,-1.176771,1.269694,1.193653
49.95035,97.79247,-1.222602,1.269694,1.193653
50.00011,96.77527,-1.27399,1.269859,1.193653
50.05,95.12233,-1.340655,1.269859,1.193653
50.10099,94.86804,-1.360098,1.269859,1.193653
50.15153,90.67213,-1.372598,1.269859,1.193653
50.20025,86.60338,-1.389264,1.269694,1.193653
50.25058,83.67896,-1.394819,1.269694,1.193653
50.30053,81.26313,-1.437874,1.269859,1.187194
50.35093,79.48306,-1.496205,1.269694,1.193653
50.40112,77.06723,-1.507316,1.269694,1.193653
50.44991,81.39028,-1.603147,1.269859,1.193653
50.50052,104.6585,-2.326735,1.269859,1.193653
50.54971,104.9128,-2.283681,1.269859,1.193653
50.60096,104.1499,-2.244793,1.269859,1.193653
50.6511,103.1327,-2.232294,1.26953,1.187194
50.69969,101.9884,-2.229516,1.269694,1.193653
50.74993,97.02956,-2.228127,1.269859,1.193653
50.7999,95.75809,-2.225349,1.269694,1.193653
50.85109,94.61374,-2.225349,1.269694,1.187194
50.90109,90.67213,-2.222572,1.270024,1.193653
50.95077,87.62056,-2.225349,1.269694,1.193653
51.00036,84.69615,-2.226738,1.26953,1.193653
51.05052,82.53461,-2.228127,1.269694,1.193653
51.10178,79.73734,-2.228127,1.269694,1.193653
51.15146,78.59301,-2.228127,1.269694,1.193653
51.20001,74.65141,-2.230905,1.269694,1.193653
51.25077,77.06723,-2.225349,1.269694,1.193653
51.30089,104.0227,-2.230905,1.269859,1.193653
51.35181,104.9128,-2.229516,1.269694,1.193653
51.40191,103.5141,-2.229516,1.269859,1.193653
51.45007,101.8612,-2.237849,1.269694,1.187194
51.50035,101.0983,-2.218405,1.269694,1.193653
51.5506,97.28386,-2.198961,1.269859,1.193653
51.60085,95.88522,-2.172573,1.269694,1.193653
51.65172,95.37663,-2.136463,1.269694,1.193653
51.70035,92.19792,-2.087854,1.269859,1.193653
51.74985,87.36626,-2.030911,1.269694,1.187194
51.8006,84.82329,-1.946191,1.269694,1.193653
51.85185,81.77173,-1.873971,1.269859,1.193653
51.90134,80.11879,-1.41843,1.269694,1.187194
51.94982,78.21156,-0.8809468,1.269694,1.193653
51.99974,75.92289,-0.7476177,1.269694,1.187194
52.05089,74.77856,-0.3781843,1.269694,1.187194
52.10074,94.10515,-0.2226336,1.269859,1.187194
52.15171,104.9128,-0.008751385,1.269694,1.193653
52.19976,103.7684,0.1259664,1.269694,1.187194
52.24989,102.3698,0.2523512,1.269694,1.187194
52.30021,101.0983,0.3634591,1.269859,1.187194
52.35107,96.64812,0.4745669,1.269694,1.187194
52.40136,94.10515,0.5203986,1.269694,1.187194
52.4506,94.2323,0.5551196,1.269694,1.187194
52.5006,91.18073,0.5745637,1.269859,1.187194
52.5503,88.00201,0.5912299,1.269694,1.187194
52.60148,84.95044,0.5953962,1.26953,1.187194
52.65073,83.42466,0.5898411,1.269694,1.187194
52.70021,82.53461,0.5745637,1.269859,1.187194
52.74973,79.10161,0.5551196,1.269694,1.187194
52.80037,77.57583,0.509288,1.269694,1.187194
52.85123,102.3698,0.4467897,1.269694,1.187194
52.901,105.1671,0.416235,1.269694,1.187194
52.95051,104.1499,0.3981801,1.269694,1.187194
53.00001,102.8784,0.3731809,1.269859,1.187194
53.05059,101.2255,0.3592928,1.269694,1.187194
53.1012,96.01237,0.320405,1.269859,1.187194
53.15084,95.50377,0.2731841,1.269694,1.187194
53.20092,94.61374,0.2426293,1.269694,1.187194
53.25076,90.41783,0.1759648,1.269694,1.187194
53.30034,87.11198,0.1356882,1.269859,1.187194
53.35147,84.82329,0.08707862,1.269694,1.187194
53.40088,82.53461,0.0343027,1.269694,1.187194
53.45047,80.50024,-0.02125124,1.269694,1.187194
53.50019,77.57583,-0.0545835,1.269859,1.180735
53.55084,79.86449,-0.1518028,1.269694,1.187194
53.6011,106.0571,-0.2226336,1.269859,1.187194
53.65184,105.6757,-0.3087423,1.269694,1.187194
53.69974,104.277,-0.3726293,1.269859,1.187194
53.7501,102.6241,-0.4629042,1.269694,1.187194
53.80083,101.0983,-0.533735,1.269694,1.187194
53.85071,96.26666,-0.6004001,1.269694,1.187194
53.90073,94.86804,-0.653176,1.269694,1.187194
53.95075,94.10515,-0.6795639,1.269694,1.187194
53.99992,91.05358,-0.6948413,1.269694,1.187194
54.04971,88.5106,-0.7059519,1.269694,1.187194
54.10166,84.569,-0.7198405,1.269694,1.187194
54.15165,81.39028,-0.751784,1.269694,1.187194
54.19983,80.62739,-0.7767832,1.269694,1.187194
54.25071,77.95727,-0.8281704,1.269694,1.187194
54.30046,75.03284,-0.8323371,1.269859,1.180735
54.35175,98.30104,-0.87678,1.269694,1.180735
54.401,106.6929,-0.9531669,1.269694,1.187194
54.45071,105.4214,-2.0323,1.269694,1.187194
54.50048,103.6413,-1.950358,1.269859,1.180735
54.55,102.6241,-1.937858,1.269694,1.187194
54.60128,100.4626,-1.925359,1.269694,1.187194
54.65184,95.88522,-1.912859,1.269694,1.187194
54.69992,95.50377,-1.908692,1.269694,1.180735
54.75075,91.05358,-1.905915,1.269859,1.187194
54.80021,88.89205,-1.905915,1.269694,1.187194
54.85075,85.45904,-1.904526,1.269694,1.180735
54.90192,81.39028,-1.904526,1.269694,1.187194
54.95025,79.73734,-1.901748,1.269859,1.187194
55.00067,77.19438,-1.908692,1.269694,1.180735
55.05062,76.68578,-1.917025,1.269694,1.187194
55.10172,73.88851,-1.917025,1.269694,1.180735
55.15075,75.79574,-1.940636,1.269694,1.187194
55.20075,104.4042,-1.968413,1.269694,1.180735
55.25058,105.4214,-1.987857,1.269694,1.187194
55.30045,103.1327,-2.012856,1.269859,1.180735
55.35144,101.6069,-2.015634,1.269859,1.187194
55.40121,101.0983,-2.018411,1.269694,1.180735
55.4507,95.75809,-2.022578,1.269694,1.180735
55.50082,95.12233,-2.026744,1.269694,1.180735
55.55027,94.61374,-2.028133,1.269694,1.180735
55.60123,89.2735,-2.026744,1.269694,1.180735
55.65195,84.95044,-2.022578,1.269859,1.180735
55.70023,82.15317,-2.0198,1.269859,1.180735
55.74979,79.10161,-2.0073,1.269694,1.180735
55.8003,77.57583,-1.985079,1.269859,1.180735
55.85167,75.41429,-1.932303,1.269694,1.187194
55.90174,72.74417,-1.901748,1.269859,1.187194
55.95036,71.72699,-1.857305,1.269859,1.180735
56,93.46941,-1.80314,1.269694,1.187194
56.05034,100.4626,-1.657311,1.269694,1.180735
56.10158,103.7684,-1.487872,1.269694,1.180735
56.1508,103.1327,-1.175382,1.269859,1.180735
56.20079,101.2255,-0.714285,1.269694,1.180735
56.25026,98.55534,-0.5309575,1.26953,1.187194
56.30076,94.61374,-0.2309666,1.269859,1.180735
56.35195,93.85085,-0.03097307,1.269694,1.187194
56.40111,90.67213,0.09818971,1.269694,1.180735
56.45084,86.60338,0.2190189,1.269694,1.180735
56.50065,83.42466,0.3231825,1.269859,1.180735
56.54995,80.50024,0.3954026,1.269694,1.180735
56.60186,78.84731,0.4620671,1.269694,1.180735
56.65142,77.83012,0.4773445,1.269694,1.180735
56.70024,74.65141,0.4829,1.269694,1.180735
56.75033,81.00883,0.4579008,1.269859,1.180735
56.80028,106.1843,0.4204018,1.26953,1.180735
56.85107,105.1671,0.3787364,1.269694,1.180735
56.90199,102.497,0.328738,1.269859,1.180735
56.95057,101.0983,0.2704066,1.269694,1.180735
57.00054,97.9196,0.2051308,1.269694,1.180735
57.0501,95.24948,0.1523544,1.269694,1.180735
57.10109,93.85085,0.1148558,1.269694,1.180735
57.15182,91.68932,0.08568986,1.269694,1.180735
57.20039,88.00201,0.0343027,1.269694,1.180735
57.24999,83.55181,-0.01708445,1.269694,1.180735
57.30024,81.77173,-0.09486008,1.269859,1.180735
57.35145,79.3559,-0.1781907,1.269694,1.180735
57.40079,76.94007,-0.2781875,1.269859,1.180735
57.45039,78.84731,-0.4073503,1.269694,1.180735
57.5004,101.2255,-0.5004028,1.270024,1.180735
57.55034,107.8372,-0.5615123,1.269694,1.174276
57.60095,105.2942,-0.6059551,1.269859,1.180735
57.65166,103.5141,-0.6337323,1.269694,1.180735
57.70029,101.9884,-0.661509,1.269694,1.174276
57.75071,96.90242,-0.7198405,1.269694,1.180735
57.80004,95.12233,-0.7337291,1.269694,1.180735
57.85174,94.74089,-0.7392847,1.269694,1.180735
57.90121,90.79928,-0.7545615,1.269694,1.180735
57.94998,87.11198,-0.7767832,1.269694,1.180735
57.99998,83.80611,-0.7948381,1.269694,1.180735
58.04998,83.29751,-0.8212266,1.269859,1.180735
58.10139,79.73734,-0.8170598,1.269859,1.180735
58.15138,76.55863,-0.8212266,1.269694,1.180735
58.20016,76.81293,-0.8240041,1.269694,1.174276
58.24998,102.497,-0.8337259,1.269859,1.180735
58.30071,107.2015,-0.8392815,1.269694,1.180735
58.35191,106.1843,-0.8462258,1.269694,1.180735
58.40198,104.6585,-0.8656694,1.269694,1.180735
58.45066,103.7684,-0.8740025,1.269694,1.174276
58.49993,99.06393,-0.8934461,1.269694,1.180735
58.55069,96.13953,-0.914279,1.269859,1.180735
58.60098,95.75809,-0.9337227,1.269694,1.180735
58.65147,90.67213,-0.9434446,1.269694,1.180735
58.70003,88.5106,-0.967055,1.269694,1.174276
58.75016,84.44184,-0.9851099,1.269859,1.180735
58.80046,82.15317,-1.004554,1.26953,1.180735
58.85104,79.86449,-1.030942,1.269694,1.174276
58.90123,77.83012,-1.062886,1.269694,1.180735
58.95098,75.41429,-1.271212,1.269694,1.174276
59.0005,74.65141,-2.297569,1.269694,1.174276
59.05042,99.57254,-2.162851,1.269694,1.174276
59.10123,106.5657,-2.146185,1.269859,1.174276
59.15098,105.0399,-2.136463,1.269694,1.180735
59.20097,104.1499,-2.139241,1.269694,1.180735
59.25097,102.3698,-2.136463,1.269694,1.174276
59.30066,97.66531,-2.137852,1.269694,1.174276
59.35123,95.37663,-2.137852,1.269694,1.180735
59.40122,94.86804,-2.137852,1.269694,1.180735
59.44992,90.41783,-2.133686,1.269694,1.180735
59.50088,86.34908,-2.130908,1.269694,1.180735
59.55026,83.80611,-2.12813,1.269694,1.174276
59.6017,80.24594,-2.126741,1.269694,1.180735
59.65165,79.61021,-2.129519,1.26953,1.174276
59.70031,77.06723,-2.122575,1.269859,1.180735
59.75021,74.39711,-2.093409,1.269694,1.174276
59.8005,79.3559,-2.06841,1.269859,1.174276
59.85114,89.40065,-2.0323,1.269694,1.174276
59.90097,106.4386,-1.968413,1.269694,1.174276
59.95095,104.7856,-1.889249,1.269694,1.180735
60.00097,104.1499,-1.826751,1.269694,1.174276
60.04985,103.7684,-1.722587,1.269694,1.174276
60.10139,99.06393,-0.8753912,1.269694,1.180735
60.15121,97.15671,-0.7573396,1.269694,1.174276
60.20007,96.13953,-0.4059615,1.269694,1.174276
60.25097,90.92643,-0.1143037,1.269694,1.174276
60.30077,86.98483,0.09124541,1.269694,1.174276
60.35152,83.80611,0.2592955,1.269694,1.174276
60.40119,82.15317,0.3731809,1.269694,1.180735
60.45048,80.50024,0.4579008,1.269694,1.174276
60.49994,78.72016,0.4884551,1.269859,1.174276
60.54982,77.06723,0.5273429,1.269694,1.174276
60.6009,87.23911,0.5398427,1.269859,1.174276
60.6518,107.71,0.544009,1.269694,1.174276
60.69995,106.82,0.544009,1.269859,1.174276
60.74981,105.2942,0.5342872,1.269694,1.180735
60.80092,104.277,0.5106767,1.269694,1.174276
60.85142,100.4626,0.4662339,1.269694,1.174276
60.90116,96.90242,0.4217905,1.269859,1.174276
60.95057,96.13953,0.3801252,1.269694,1.174276
61.00057,93.85085,0.3301268,1.269694,1.174276
61.05029,90.41783,0.2620735,1.269694,1.174276
61.101,85.71333,0.1870759,1.269694,1.174276
61.15113,83.29751,0.1259664,1.269694,1.167817
61.20057,81.77173,0.0662462,1.269859,1.174276
61.25017,78.72016,0.01346978,1.269694,1.174276
61.30068,82.78893,-0.07124963,1.269859,1.167817
61.35179,108.0915,-0.1587471,1.269694,1.174276
61.40157,107.8372,-0.2365222,1.269859,1.174276
61.44996,107.4557,-0.2920761,1.269694,1.174276
61.50058,105.6757,-0.3990172,1.269694,1.174276
61.55017,104.5313,-0.4767923,1.269859,1.174276
61.60129,98.6825,-0.5504012,1.269859,1.174276
61.65189,97.02956,-0.5795671,1.269859,1.174276
61.7004,96.13953,-0.589289,1.269859,1.174276
61.75042,91.81647,-0.6156769,1.269694,1.174276
61.80046,87.23911,-0.6670646,1.269694,1.174276
61.85165,84.3147,-0.7156742,1.269694,1.174276
61.9013,81.77173,-0.7684501,1.269859,1.174276
61.95078,79.86449,-0.7990049,1.269859,1.174276
62.00046,77.19438,-0.8184485,1.269694,1.174276
62.05046,76.17719,-0.8434477,1.269859,1.174276
62.10161,103.1327,-0.8726137,1.269694,1.174276
62.15133,107.9643,-0.8837243,1.269859,1.174276
62.20077,105.93,-0.8948349,1.269694,1.174276
62.25046,105.4214,-0.9198346,1.269859,1.167817
62.30025,104.0227,-0.9378895,1.269859,1.174276
62.35179,99.95398,-0.9545556,1.269694,1.174276
62.40129,96.90242,-0.9767768,1.269694,1.174276
62.44993,96.26666,-0.9948322,1.269694,1.167817
62.50108,91.94361,-1.000387,1.269694,1.174276
62.55074,87.36626,-1.004554,1.269694,1.174276
62.60169,83.93326,-1.017053,1.269859,1.174276
62.65094,80.75454,-1.025386,1.269694,1.174276
62.70086,78.33871,-1.039275,1.269859,1.174276
62.75046,76.17719,-1.075385,1.269859,1.174276
62.80033,73.50706,-1.579536,1.269694,1.174276
62.85116,76.68578,-2.28507,1.269859,1.167817
62.90091,76.81293,-2.137852,1.269859,1.174276
62.95053,94.35944,-2.151741,1.269694,1.167817
63.00041,104.5313,-2.146185,1.269859,1.167817
63.05045,104.1499,-2.143408,1.269694,1.174276
63.10128,103.0055,-2.142019,1.269694,1.174276
63.1514,97.79247,-2.139241,1.269859,1.167817
63.20063,95.88522,-2.14063,1.269694,1.167817
63.25081,94.74089,-2.14063,1.269694,1.174276
63.30061,90.54498,-2.136463,1.269694,1.167817
63.35135,86.22193,-2.135074,1.269694,1.174276
63.40136,82.78893,-2.108686,1.269694,1.167817
63.45061,80.11879,-2.071187,1.269859,1.174276
63.5001,77.95727,-2.042022,1.269694,1.167817
63.55103,76.17719,-1.987857,1.269859,1.167817
63.60176,73.63422,-1.91147,1.269694,1.167817
63.65153,75.79574,-1.843417,1.269859,1.174276
63.70003,101.8612,-1.794807,1.269694,1.167817
63.75066,108.4729,-1.62259,1.269694,1.167817
63.7999,106.5657,-0.7698389,1.269694,1.167817
63.85105,105.0399,-0.6559535,1.269859,1.167817
63.90086,104.277,-0.301798,1.269694,1.167817
63.94997,100.2083,-0.1240255,1.269694,1.167817
63.9999,96.52097,0.03985825,1.269694,1.167817
64.05078,95.50377,0.2065196,1.269859,1.174276
64.10116,93.978,0.2773509,1.269694,1.167817
64.15152,88.63776,0.3342931,1.269694,1.167817
64.20103,86.09478,0.3773477,1.269694,1.174276
64.25103,82.40748,0.3912358,1.269694,1.167817
64.30102,80.88168,0.4051244,1.269694,1.167817
64.35089,78.46587,0.392625,1.26953,1.167817
64.40161,76.43149,0.3648478,1.269694,1.174276
64.45087,101.8612,0.3148494,1.26953,1.167817
64.50092,109.2358,0.2634623,1.269694,1.167817
64.55074,107.4557,0.2231857,1.269694,1.167817
64.60127,105.8028,0.1440213,1.26953,1.167817
64.65205,104.5313,0.05374635,1.269859,1.167817
64.70052,100.7169,-0.01986248,1.269694,1.167817
64.74987,96.13953,-0.07402715,1.269694,1.167817
64.80103,96.26666,-0.1365254,1.269694,1.167817
64.85215,92.19792,-0.2059674,1.26953,1.167817
64.90144,87.62056,-0.2920761,1.269694,1.167817
64.95087,83.93326,-0.3587407,1.269859,1.167817
65.0004,81.51743,-0.4920697,1.269694,1.167817
65.05087,80.62739,-0.5587342,1.269694,1.167817
65.10155,76.94007,-0.6115107,1.269694,1.174276
65.15116,75.28716,-0.6337323,1.269859,1.167817
65.20115,81.00883,-0.714285,1.269694,1.167817
65.25065,108.7272,-0.7503952,1.269694,1.167817
65.30052,107.5829,-0.7559508,1.269859,1.167817
65.35185,105.5485,-0.7726169,1.269694,1.167817
65.40169,104.0227,-0.8059492,1.269694,1.167817
65.45036,101.2255,-0.8142823,1.269694,1.167817
65.50051,96.13953,-0.8392815,1.269694,1.167817
65.55068,95.75809,-0.8573363,1.269694,1.167817
65.60108,93.2151,-0.8878911,1.269694,1.167817
65.65167,86.85767,-0.9003904,1.26953,1.167817
65.70068,83.42466,-0.9281677,1.269694,1.167817
65.7506,80.37309,-0.940667,1.269694,1.167817
65.80114,77.95727,-0.9587219,1.269859,1.167817
65.85114,75.66859,-0.9809436,1.269694,1.167817
65.90184,73.12562,-1.015665,1.269694,1.161357
65.95001,72.99847,-1.029553,1.269694,1.167817
65.99992,93.978,-1.058719,1.26953,1.167817
66.04999,106.5657,-1.079552,1.269694,1.167817
66.10166,105.6757,-1.117051,1.269694,1.167817
66.15134,104.5313,-1.814251,1.269694,1.167817
66.20099,103.1327,-2.193406,1.269694,1.167817
66.25081,97.41101,-2.094798,1.269694,1.167817
66.30069,95.12233,-2.108686,1.269859,1.167817
66.35201,94.10515,-2.100353,1.269694,1.167817
66.40199,90.79928,-2.093409,1.269694,1.167817
66.45076,85.96764,-2.087854,1.269694,1.167817
66.50101,82.28033,-2.087854,1.269859,1.167817
66.55059,78.84731,-2.083687,1.269694,1.167817
66.60152,76.17719,-2.087854,1.269694,1.167817
66.65176,75.41429,-2.089242,1.269694,1.161357
66.70052,72.23557,-2.09202,1.269694,1.161357
66.7511,72.10844,-2.076743,1.269694,1.167817
66.80059,105.6757,-2.069799,1.269694,1.167817
66.85152,108.4729,-2.053133,1.26953,1.167817
66.90152,106.0571,-2.014245,1.269694,1.167817
66.95085,105.0399,-1.937858,1.269694,1.161357
67,103.387,-1.848972,1.269859,1.167817
67.05002,99.44539,-1.785085,1.269694,1.161357
67.1015,97.02956,-1.583703,1.269694,1.161357
67.15191,94.61374,-0.7642839,1.269694,1.167817
67.20085,91.05358,-0.6295655,1.269694,1.161357
67.25038,86.85767,-0.2698545,1.269694,1.161357
67.3,83.42466,-0.06569409,1.269859,1.167817
67.35111,79.86449,0.1384663,1.269694,1.167817
67.40113,77.57583,0.2704066,1.269694,1.161357
67.44998,76.94007,0.3342931,1.269694,1.161357
67.50026,74.14281,0.3648478,1.269694,1.161357
67.55084,74.65141,0.4065132,1.269694,1.167817
67.60213,105.93,0.4134575,1.269694,1.161357
67.65137,109.9987,0.4329011,1.26953,1.167817
67.70013,106.3114,0.4384567,1.269859,1.161357
67.75112,104.6585,0.424568,1.269859,1.161357
67.80042,103.7684,0.4009581,1.269694,1.161357
67.85127,97.41101,0.3356823,1.269694,1.161357
67.90128,96.13953,0.2787396,1.269694,1.161357
67.94994,95.75809,0.227352,1.269694,1.167817
68.00047,92.19792,0.1634655,1.269694,1.161357
68.05043,89.90925,0.07457928,1.269694,1.161357
68.10143,84.95044,0.002359198,1.269694,1.161357
68.15203,81.77173,-0.07541642,1.269859,1.167817
68.20052,79.61021,-0.150414,1.269694,1.161357
68.25042,77.70296,-0.2281891,1.269694,1.161357
68.30001,83.29751,-0.3642962,1.269859,1.161357
68.35192,103.8956,-0.4892922,1.269694,1.161357
68.40184,108.7272,-0.554568,1.269859,1.161357
68.45042,108.6001,-0.5809559,1.269694,1.161357
68.5004,106.9472,-0.6351211,1.269859,1.161357
68.55025,105.8028,-0.6712309,1.269694,1.161357
68.60211,98.04675,-0.7031744,1.26953,1.161357
68.65125,97.28386,-0.7503952,1.269694,1.161357
68.701,96.90242,-0.7712277,1.269694,1.161357
68.75102,91.56216,-0.7906718,1.269859,1.161357
68.80022,87.23911,-0.8184485,1.269694,1.161357
68.85101,83.93326,-0.8434477,1.269694,1.161357
68.90142,81.39028,-0.8628919,1.269694,1.154898
68.9501,79.99165,-0.8906686,1.269694,1.161357
69.00088,76.81293,-0.9087235,1.269694,1.161357
69.05042,76.68578,-0.9226121,1.269694,1.154898
69.10162,76.94007,-0.9476113,1.269694,1.161357
69.1511,110.3802,-0.9656662,1.269694,1.161357
69.20084,108.4729,-0.9906654,1.269694,1.161357
69.25092,106.9472,-1.035109,1.269694,1.161357
69.30064,105.6757,-1.042053,1.269694,1.154898
69.35192,99.57254,-1.043442,1.269859,1.161357
69.40137,97.28386,-1.062886,1.269694,1.161357
69.45072,95.63092,-1.097607,1.269694,1.161357
69.50067,90.92643,-1.305934,1.269859,1.161357
69.55067,87.23911,-2.179517,1.269694,1.161357
69.60175,84.3147,-2.048966,1.269694,1.161357
69.65116,81.00883,-2.050355,1.269694,1.161357
69.70038,79.61021,-2.051744,1.269694,1.161357
69.75037,77.95727,-2.051744,1.269694,1.161357
69.80111,74.26996,-2.054521,1.269694,1.161357
69.85193,81.77173,-2.05591,1.269694,1.161357
69.90138,98.80965,-2.064243,1.269694,1.161357
69.9511,109.2358,-2.072576,1.269694,1.161357
70.00099,107.3286,-2.073965,1.269694,1.161357
70.05065,106.9472,-2.069799,1.269694,1.154898
70.10136,104.5313,-2.071187,1.269694,1.161357
70.15138,97.66531,-2.057299,1.269694,1.154898
70.20097,96.64812,-2.0448,1.269859,1.161357
70.25016,95.12233,-2.015634,1.269694,1.161357
70.30021,91.05358,-1.94758,1.269859,1.161357
70.35166,85.71333,-1.854528,1.269694,1.154898
70.40213,83.42466,-1.787863,1.269694,1.161357
70.45101,80.62739,-1.639256,1.269694,1.154898
70.50084,78.33871,-1.172604,1.269694,1.154898
70.55091,77.06723,-0.6948413,1.269694,1.161357
70.60187,73.76136,-0.4448493,1.269694,1.161357
70.65121,81.00883,-0.1629134,1.269694,1.161357
70.70112,89.78209,-0.05874978,1.269694,1.161357
70.75116,108.4729,0.1093003,1.269859,1.161357
70.80113,106.4386,0.2509624,1.269859,1.154898
70.85162,105.4214,0.3037388,1.269694,1.161357
70.90137,104.277,0.3440154,1.269859,1.154898
70.95078,98.1739,0.3773477,1.269859,1.154898
71.00063,96.77527,0.4037356,1.269694,1.154898
71.05086,96.13953,0.4148462,1.269694,1.154898
71.10212,93.46941,0.3981801,1.269694,1.154898
71.15135,88.38345,0.3537372,1.269859,1.161357
71.20016,85.45904,0.2981833,1.26953,1.161357
71.25091,82.66177,0.227352,1.269694,1.154898
71.30091,81.00883,0.1301332,1.269859,1.154898
71.3521,78.33871,0.04680204,1.269859,1.154898
71.40212,79.48306,-0.03236182,1.269859,1.154898
71.44998,107.5829,-0.1309699,1.269694,1.154898
71.50012,110.6345,-0.2184673,1.270024,1.154898
71.55103,107.71,-0.2698545,1.269694,1.154898
71.60149,106.0571,-0.3698512,1.269859,1.154898
71.65125,104.6585,-0.4254052,1.269694,1.154898
71.70086,97.28386,-0.5240132,1.269694,1.154898
71.75085,96.90242,-0.5698453,1.269694,1.154898
71.80002,96.64812,-0.5948445,1.269694,1.154898
71.85201,92.45221,-0.6295655,1.269859,1.154898
71.90202,86.73053,-0.6628978,1.269694,1.154898
71.95078,83.55181,-0.7101187,1.269694,1.154898
72.00077,81.77173,-0.7392847,1.269694,1.154898
72.05058,79.48306,-0.7670614,1.269694,1.154898
72.10161,77.06723,-0.7920606,1.269694,1.154898
72.15121,77.44867,-0.8240041,1.269859,1.154898
72.20073,109.4901,-0.850392,1.269694,1.154898
72.25053,110.3802,-0.8726137,1.269694,1.154898
72.30025,106.9472,-0.8851131,1.269694,1.154898
72.35149,106.0571,-0.8948349,1.269694,1.161357
72.40134,104.0227,-0.9101123,1.269694,1.154898
72.4509,97.02956,-0.9240009,1.269694,1.154898
72.50048,96.39381,-0.9434446,1.269859,1.154898
72.55047,95.63092,-0.9684438,1.269694,1.154898
72.60165,91.30788,-0.9795548,1.269694,1.154898
72.6512,86.98483,-0.9920542,1.269694,1.154898
72.70073,83.04321,-1.014276,1.269694,1.148439
72.75054,79.61021,-1.022609,1.269859,1.154898
72.8001,77.70296,-1.054552,1.269694,1.154898
72.85184,75.16,-1.082329,1.269694,1.154898
72.9019,72.48988,-1.904526,1.269694,1.154898
72.9509,72.48988,-2.207294,1.269694,1.154898
73.00084,101.9884,-2.114242,1.269694,1.154898
73.05043,109.8716,-2.119797,1.269694,1.154898
73.10133,105.93,-2.115631,1.269694,1.154898
73.15161,104.9128,-2.115631,1.269694,1.154898
73.20035,104.0227,-2.114242,1.269694,1.154898
73.25126,96.77527,-2.097575,1.26953,1.154898
73.30128,96.01237,-2.062855,1.269859,1.154898
73.35129,94.61374,-2.0323,1.269859,1.154898
73.40115,90.16354,-1.985079,1.26953,1.154898
73.45033,85.58618,-1.898971,1.269694,1.154898
73.50043,82.15317,-1.829529,1.269694,1.154898
73.55036,79.10161,-1.753142,1.269694,1.154898
73.60117,76.30434,-1.028165,1.269694,1.154898
73.65126,74.01566,-0.7684501,1.269859,1.154898
73.70114,72.74417,-0.653176,1.269694,1.154898
73.75061,70.4555,-0.3254084,1.269694,1.154898
73.80061,71.09124,-0.1143037,1.269859,1.154898
73.85189,108.0915,0.02458088,1.269859,1.154898
73.90161,108.6001,0.1606874,1.269694,1.154898
73.95062,106.4386,0.2537404,1.269694,1.148439
74.00063,104.1499,0.2967945,1.269859,1.154898
74.05061,103.5141,0.3384598,1.26953,1.148439
74.10176,94.61374,0.3676258,1.269694,1.154898
74.15162,93.85085,0.3745697,1.269859,1.154898
74.20013,93.46941,0.3731809,1.269859,1.148439
74.25014,89.40065,0.3606815,1.269694,1.154898
74.30061,85.07759,0.3079051,1.269859,1.154898
74.35189,81.89888,0.2579067,1.269694,1.154898
74.40201,79.22876,0.1898534,1.269694,1.154898
74.45013,77.57583,0.1009672,1.269694,1.148439
74.50035,75.03284,0.01624781,1.269859,1.148439
74.55054,76.43149,-0.06291657,1.269694,1.148439
74.60178,82.66177,-0.1587471,1.269859,1.148439
74.65144,107.71,-0.2295779,1.269694,1.148439
74.70055,107.2015,-0.3142978,1.269859,1.148439
74.75062,106.1843,-0.3781843,1.269859,1.148439
74.80063,104.277,-0.4712373,1.269694,1.148439
74.85189,95.50377,-0.5406793,1.269859,1.154898
74.90161,94.99519,-0.5809559,1.269694,1.148439
74.9504,94.86804,-0.6073439,1.269694,1.148439
75.0004,91.18073,-0.626788,1.269694,1.148439
75.05025,89.90925,-0.687897,1.269694,1.148439
75.10123,81.77173,-0.7267848,1.269694,1.148439
75.15189,78.72016,-0.751784,1.269694,1.148439
75.20059,77.19438,-0.7823388,1.269694,1.154898
75.25113,74.39711,-0.8226153,1.269694,1.148439
75.30113,72.36273,-0.8337259,1.269694,1.148439
75.3516,95.12233,-0.871225,1.269694,1.148439
75.40143,112.4145,-0.8865018,1.269694,1.148439
75.45021,110.5073,-0.9017792,1.269694,1.148439
75.50005,107.9643,-0.9115015,1.269694,1.148439
75.55032,106.3114,-0.9309452,1.269694,1.148439
75.60209,100.0811,-0.9559444,1.269859,1.148439
75.65121,94.35944,-0.9989985,1.269694,1.148439
75.7004,93.34225,-1.017053,1.269859,1.148439
75.75039,91.43503,-1.028165,1.269694,1.148439
75.80024,84.82329,-1.037886,1.269694,1.148439
75.85143,81.13599,-1.061497,1.269859,1.148439
75.90215,78.59301,-1.073996,1.26953,1.148439
75.95108,76.17719,-1.10594,1.269694,1.148439
76.00005,74.39711,-1.379542,1.269859,1.148439
76.05112,73.37991,-2.298958,1.269859,1.148439
76.10125,72.36273,-2.137852,1.269694,1.148439
76.15134,97.41101,-2.161463,1.269694,1.148439
76.201,109.7444,-2.158685,1.269694,1.154898
76.25055,108.2186,-2.144796,1.269694,1.148439
76.30007,106.0571,-2.132297,1.269694,1.148439
76.3522,104.7856,-2.12813,1.26953,1.148439
76.40171,96.77527,-2.12813,1.269859,1.148439
76.4502,95.37663,-2.126741,1.269694,1.148439
76.50108,94.10515,-2.129519,1.269694,1.148439
76.55073,89.90925,-2.126741,1.269859,1.148439
76.60154,84.0604,-2.114242,1.269694,1.148439
76.6517,80.50024,-2.094798,1.269694,1.148439
76.7003,77.06723,-2.050355,1.269859,1.148439
76.75121,76.05004,-2.023967,1.269859,1.148439
76.80055,74.01566,-1.986468,1.269694,1.148439
76.85112,70.83694,-1.900359,1.269694,1.148439
76.90153,79.3559,-1.828139,1.269694,1.148439
76.9512,98.6825,-1.747587,1.269859,1.148439
77.00108,108.9815,-1.150383,1.269694,1.14198
77.05084,108.9815,-0.7031744,1.269694,1.148439
77.10149,104.5313,-0.4170721,1.26953,1.148439
77.15112,102.6241,-0.1004156,1.269694,1.148439
77.20125,96.13953,0.1190221,1.26953,1.148439
77.25056,95.12233,0.2704066,1.269694,1.148439
77.30036,94.61374,0.381514,1.269859,1.148439
77.35181,89.2735,0.4856775,1.269694,1.148439
77.40184,84.95044,0.5620639,1.269694,1.148439
77.45064,81.13599,0.6037292,1.269694,1.14198
77.50066,78.97446,0.6273397,1.269694,1.148439
77.55119,76.94007,0.6453946,1.269694,1.14198
77.60107,74.65141,0.6565056,1.269859,1.148439
77.65192,76.30434,0.6467838,1.269694,1.148439
77.70056,107.3286,0.6273397,1.269859,1.148439
77.75039,110.3802,0.5940074,1.269694,1.148439
77.80093,107.71,0.5495645,1.269694,1.14198
77.85207,106.0571,0.5037324,1.269694,1.148439
77.9016,102.6241,0.4523453,1.269694,1.148439
77.95011,95.88522,0.4037356,1.26953,1.14198
78.00012,95.37663,0.3537372,1.269694,1.148439
78.05012,95.24948,0.3079051,1.269694,1.14198
78.10223,88.7649,0.2259632,1.269859,1.148439
78.15211,84.95044,0.1745761,1.269694,1.148439
78.20061,81.64457,0.1037447,1.269694,1.148439
78.25056,79.48306,0.04819132,1.26953,1.14198
78.30036,77.06723,-0.00319635,1.269694,1.14198
78.35136,77.44867,-0.08374949,1.269859,1.148439
78.40156,84.18755,-0.1698577,1.269694,1.148439
78.45031,108.8544,-0.2615214,1.269694,1.14198
78.50079,108.7272,-0.3073535,1.269694,1.14198
78.55019,106.9472,-0.4212389,1.269694,1.14198
78.60232,105.6757,-0.4976253,1.269694,1.14198
78.65112,97.41101,-0.5504012,1.269694,1.14198
78.70111,96.52097,-0.5879002,1.269694,1.14198
78.75017,95.50377,-0.6420654,1.269859,1.14198
78.80011,90.92643,-0.687897,1.269694,1.14198
78.85136,86.34908,-0.7365066,1.269694,1.148439
78.90131,82.91606,-0.7531728,1.269859,1.14198
78.95073,80.11879,-0.7906718,1.269694,1.14198
79.00043,78.59301,-0.8365034,1.269694,1.14198
79.05011,76.30434,-0.8740025,1.269694,1.14198
79.10136,74.65141,-0.9045572,1.269694,1.14198
79.1523,106.82,-0.9490001,1.269694,1.148439
79.20112,111.5245,-1.621201,1.269694,1.148439
79.25079,109.8716,-2.155907,1.269694,1.14198
79.30081,107.4557,-2.046188,1.269694,1.14198
79.35205,106.3114,-2.048966,1.269694,1.148439
79.40163,99.06393,-2.047577,1.269694,1.14198
79.4509,96.64812,-2.0448,1.269694,1.14198
79.50132,96.13953,-2.047577,1.269859,1.14198
79.55116,93.08795,-2.047577,1.269694,1.14198
79.60223,86.98483,-2.048966,1.269694,1.14198
79.65223,84.82329,-2.051744,1.269694,1.14198
79.70096,80.11879,-2.053133,1.269694,1.14198
79.75036,78.46587,-2.061466,1.269694,1.14198
79.80023,76.94007,-2.064243,1.269859,1.14198
79.85143,73.50706,-2.061466,1.269694,1.148439
79.90124,76.30434,-2.069799,1.269694,1.14198
79.95064,108.3458,-2.080909,1.269694,1.14198
80.00082,110.7616,-2.090631,1.269859,1.14198
80.05058,108.7272,-2.090631,1.269694,1.14198
80.10167,106.9472,-2.072576,1.269694,1.14198
80.15185,103.5141,-2.033689,1.269694,1.14198
80.20096,96.52097,-1.989246,1.269859,1.14198
80.25092,96.26666,-1.912859,1.269694,1.14198
80.30043,95.63092,-1.821195,1.269859,1.148439
80.35146,89.14634,-1.737864,1.269694,1.14198
80.40211,85.58618,-1.522593,1.269694,1.14198
80.45055,81.39028,-0.7448397,1.269694,1.14198
80.50071,78.72016,-0.4851254,1.269694,1.148439
80.55031,77.19438,-0.1434697,1.26953,1.14198
80.60188,75.54144,0.09680044,1.269694,1.14198
80.65152,72.87133,0.235685,1.269694,1.14198
80.70118,77.95727,0.3148494,1.269694,1.14198
80.75106,109.6173,0.3495705,1.269694,1.14198
80.80058,108.4729,0.3829027,1.269859,1.14198
80.85181,107.4557,0.4106799,1.269694,1.14198
80.9021,105.93,0.4065132,1.269694,1.14198
80.95131,104.277,0.3912358,1.269694,1.14198
81.00056,95.75809,0.3329043,1.269694,1.14198
81.05014,95.50377,0.2731841,1.269694,1.14198
81.1021,94.99519,0.1731873,1.269859,1.14198
81.15152,88.7649,0.1093003,1.269859,1.14198
81.2003,85.45904,0.02874715,1.269694,1.14198
81.25108,81.64457,-0.0545835,1.269694,1.14198
81.30107,78.97446,-0.1393029,1.269694,1.14198
81.35137,76.43149,-0.3184641,1.269694,1.14198
81.40205,74.77856,-0.4212389,1.269694,1.14198
81.45027,83.55181,-0.5323463,1.269694,1.135521
81.50046,111.7788,-0.5795671,1.269694,1.14198
81.55118,108.6001,-0.6031776,1.269859,1.14198
81.60134,106.4386,-0.6378986,1.26953,1.14198
81.65128,105.1671,-0.6656759,1.269694,1.14198
81.70107,96.13953,-0.6892858,1.269694,1.14198
81.75122,95.75809,-0.7115074,1.269694,1.14198
81.80093,94.99519,-0.7392847,1.269859,1.14198
81.85191,92.32506,-0.7642839,1.269694,1.14198
81.90137,87.23911,-0.7934493,1.269694,1.14198
81.95022,83.55181,-0.8115042,1.269859,1.135521
82.00121,80.75454,-0.8462258,1.269694,1.14198
82.05121,79.73734,-0.8628919,1.269694,1.14198
82.10227,76.68578,-0.9101123,1.269859,1.14198
82.15191,71.85413,-0.9337227,1.269694,1.14198
82.20034,85.96764,-1.986468,1.269694,1.14198
82.25043,108.6001,-1.992023,1.26953,1.14198
82.30118,107.8372,-1.982301,1.269694,1.135521
82.35117,107.2015,-1.986468,1.269694,1.14198
82.40208,104.7856,-1.990634,1.269694,1.14198
82.4509,99.19109,-1.994801,1.269694,1.135521
82.50107,93.72369,-1.997579,1.269694,1.14198
82.55106,93.59654,-2.004523,1.269694,1.135521
82.60171,92.7065,-2.004523,1.269694,1.14198
82.65115,87.36626,-2.0073,1.269694,1.135521
82.70092,82.02603,-2.008689,1.269859,1.14198
82.75094,79.73734,-2.012856,1.269694,1.135521
82.80103,76.43149,-2.015634,1.269694,1.14198
82.85188,74.52426,-2.017023,1.269694,1.14198
82.90192,72.74417,-2.029522,1.269694,1.135521
82.95034,69.94691,-2.026744,1.269859,1.14198
83.00089,72.87133,-2.035077,1.269859,1.14198
83.05117,89.65494,-2.046188,1.269694,1.14198
83.10117,108.4729,-2.0448,1.269694,1.135521
83.15154,106.9472,-2.030911,1.269859,1.14198
83.20057,105.4214,-2.004523,1.269694,1.14198
83.25029,103.387,-1.943414,1.269694,1.135521
83.30042,95.24948,-1.882304,1.269694,1.135521
83.35118,95.12233,-1.814251,1.269694,1.135521
83.40221,91.30788,-1.6712,1.269694,1.135521
83.45058,86.22193,-1.379542,1.269694,1.135521
83.50027,82.91606,-0.6990081,1.269694,1.135521
83.55116,79.86449,-0.3754068,1.269694,1.14198
83.60174,77.19438,-0.04763919,1.26953,1.135521
83.65156,75.92289,0.1481881,1.26953,1.135521
83.70033,74.26996,0.2579067,1.269859,1.135521
83.75119,72.36273,0.3745697,1.269694,1.135521
83.80025,77.70296,0.4426234,1.269694,1.135521
83.85156,108.7272,0.4856775,1.269694,1.135521
83.9019,108.8544,0.509288,1.269694,1.135521
83.95056,106.0571,0.5231766,1.269694,1.135521
84.00089,104.4042,0.5259541,1.269694,1.135521
84.05116,103.7684,0.5190098,1.269694,1.135521
84.10166,94.61374,0.4981769,1.269694,1.135521
84.15116,93.85085,0.4759557,1.269694,1.135521
84.20079,93.85085,0.4301236,1.269694,1.135521
84.25083,88.00201,0.3912358,1.269694,1.135521
84.30066,84.44184,0.3412374,1.269694,1.135521
84.35166,81.89888,0.2606843,1.269694,1.135521
84.40224,80.11879,0.2065196,1.269694,1.135521
84.4513,78.08442,0.1342995,1.269694,1.135521
84.50101,75.03284,0.0843011,1.269859,1.135521
84.55099,75.54144,0.003747957,1.269859,1.135521
84.60176,101.4798,-0.04486168,1.269694,1.135521
84.65233,110.3802,-0.086527,1.269694,1.135521
84.70081,107.9643,-0.1462472,1.269694,1.135521
84.75085,106.4386,-0.2420777,1.269859,1.135521
84.80051,101.8612,-0.3198529,1.269859,1.135521
84.85153,96.13953,-0.3795736,1.269694,1.129061
84.90154,95.75809,-0.4740148,1.269859,1.135521
84.95142,95.37663,-0.5184582,1.269694,1.135521
85.00078,89.0192,-0.5476236,1.269694,1.135521
85.05106,86.09478,-0.5684566,1.269694,1.135521
85.10233,82.15317,-0.6309543,1.269694,1.135521
85.15128,79.73734,-0.682342,1.269859,1.135521
85.20125,78.08442,-0.7434509,1.269694,1.135521
85.2505,74.65141,-0.7726169,1.26953,1.135521
85.30026,83.17036,-0.8073379,1.269859,1.135521
85.3513,112.5417,-0.8490033,1.269694,1.135521
85.4013,111.2702,-0.8740025,1.269694,1.135521
85.4508,108.6001,-0.8892798,1.269694,1.129061
85.50102,107.5829,-0.9087235,1.269859,1.135521
85.55103,105.8028,-0.9156678,1.269694,1.135521
85.60223,97.9196,-0.9545556,1.269859,1.135521
85.65173,97.53816,-0.9809436,1.269694,1.135521
85.70103,97.28386,-1.036498,1.26953,1.135521
85.75105,90.41783,-1.921192,1.269694,1.135521
85.801,86.09478,-2.008689,1.269694,1.135521
85.85152,82.53461,-1.982301,1.269694,1.129061
85.9018,79.73734,-1.986468,1.269694,1.129061
85.95057,77.95727,-1.987857,1.269694,1.129061
86.00055,76.30434,-1.99619,1.269694,1.129061
86.05124,73.76136,-1.99619,1.269694,1.135521
86.1021,73.12562,-1.998967,1.269694,1.135521
86.15177,108.0915,-2.001745,1.269694,1.135521
86.20027,109.6173,-2.005912,1.269694,1.135521
86.25082,108.9815,-2.005912,1.269694,1.135521
86.30057,107.3286,-1.987857,1.269694,1.129061
86.35182,104.6585,-1.951747,1.26953,1.129061
86.40177,98.04675,-1.896193,1.269694,1.135521
86.45106,98.1739,-1.840639,1.269694,1.129061
86.50057,97.53816,-1.77953,1.269694,1.129061
86.55057,90.41783,-1.573981,1.269694,1.129061
86.60181,86.09478,-1.347599,1.269859,1.135521
86.65169,82.15317,-0.8670582,1.269694,1.135521
86.70124,80.24594,-0.4781816,1.269694,1.135521
86.75127,79.10161,-0.1809683,1.269694,1.129061
86.80052,76.05004,0.04263577,1.269859,1.135521
86.85223,74.01566,0.264851,1.269694,1.129061
86.90205,77.95727,0.3606815,1.269694,1.135521
86.95092,85.58618,0.4551228,1.269859,1.129061
87.00094,110.6345,0.5398427,1.269859,1.135521
87.05137,110.3802,0.5662307,1.269694,1.129061
87.10224,107.71,0.5856743,1.269694,1.129061
87.15148,103.387,0.6037292,1.269694,1.129061
87.20126,98.80965,0.6106735,1.269694,1.129061
87.25052,98.04675,0.607896,1.26953,1.129061
87.30125,96.90242,0.6051185,1.269859,1.129061
87.35125,91.94361,0.5912299,1.269859,1.129061
87.40241,87.87486,0.5565088,1.269694,1.129061
87.451,85.33189,0.5037324,1.269694,1.129061
87.50141,82.28033,0.4495677,1.269859,1.129061
87.55111,80.24594,0.3773477,1.269694,1.129061
87.6022,77.57583,0.2842947,1.269694,1.129061
87.65129,79.48306,0.1745761,1.269694,1.129061
87.70056,101.8612,0.1259664,1.269859,1.129061
87.75112,110.7616,0.07596803,1.269859,1.129061
87.80102,107.9643,0.01763657,1.269694,1.129061
87.85142,106.9472,-0.03097307,1.269694,1.129061
87.90213,103.8956,-0.07819394,1.269694,1.129061
87.95061,97.53816,-0.1670801,1.269694,1.129061
88.00058,97.28386,-0.2726325,1.269859,1.129061
88.05027,97.02956,-0.3198529,1.269694,1.129061
88.10223,90.79928,-0.4087391,1.269694,1.129061
88.15153,86.47623,-0.4920697,1.269859,1.129061
88.20126,83.42466,-0.5254019,1.269694,1.129061
88.25047,80.75454,-0.5615123,1.269859,1.129061
88.30093,78.84731,-0.6351211,1.269694,1.122602
88.35218,76.05004,-0.6865082,1.269859,1.129061
88.40205,78.72016,-0.7351179,1.269694,1.129061
88.45051,95.12233,-0.7726169,1.269859,1.129061
88.50034,111.5245,-0.7976161,1.269694,1.129061
88.55081,109.2358,-0.8115042,1.269694,1.129061
88.60181,108.0915,-0.8448365,1.269859,1.129061
88.65125,105.4214,-0.8670582,1.269694,1.129061
88.70053,97.66531,-0.9017792,1.269859,1.129061
88.75085,96.90242,-1.623979,1.269694,1.129061
88.80085,94.2323,-1.979524,1.269694,1.129061
88.85163,89.14634,-1.890638,1.269694,1.122602
88.90192,85.20473,-1.894804,1.269694,1.129061
88.95058,81.77173,-1.890638,1.269694,1.129061
89.00127,78.72016,-1.893415,1.269694,1.129061
89.05051,78.97446,-1.901748,1.269694,1.129061
89.10188,75.79574,-1.917025,1.269694,1.129061
89.1518,71.98129,-1.917025,1.269859,1.129061
89.20052,86.22193,-1.957302,1.269859,1.129061
89.2508,111.1431,-1.985079,1.269694,1.129061
89.30053,109.6173,-2.017023,1.269694,1.122602
89.3518,108.3458,-2.028133,1.269694,1.129061
89.40167,106.4386,-2.033689,1.269694,1.135521
89.45137,103.8956,-2.033689,1.26953,1.129061
89.50103,96.90242,-2.026744,1.269694,1.129061
89.55053,96.64812,-2.003134,1.269694,1.122602
89.6018,96.13953,-1.961469,1.269694,1.129061
89.65225,87.11198,-1.88786,1.269694,1.129061
89.70105,84.18755,-1.81564,1.26953,1.129061
89.75105,80.24594,-1.760086,1.269694,1.122602
89.80071,77.44867,-1.52676,1.269694,1.129061
89.85204,76.55863,-1.225381,1.269694,1.129061
89.90234,73.88851,-0.6753977,1.269694,1.129061
89.95139,71.59984,-0.3781843,1.269859,1.122602
90.00037,74.01566,-0.1379142,1.269859,1.122602
90.05036,90.29069,0.06902373,1.26953,1.129061
90.10133,109.1087,0.2662398,1.269859,1.129061
90.15137,107.3286,0.4148462,1.269694,1.129061
90.20129,105.6757,0.5301204,1.269694,1.129061
90.25134,101.7341,0.5828968,1.269859,1.129061
90.30105,95.37663,0.6190066,1.269694,1.129061
90.35138,94.61374,0.6467838,1.269694,1.129061
90.40236,93.978,0.6703937,1.269694,1.129061
90.45104,90.16354,0.6773381,1.269694,1.122602
90.5013,85.33189,0.6745605,1.269694,1.122602
90.55132,81.00883,0.6565056,1.269694,1.122602
90.60197,80.24594,0.6259509,1.269694,1.129061
90.65217,77.06723,0.5828968,1.269694,1.129061
90.70114,75.28716,0.5259541,1.269694,1.122602
90.75105,78.59301,0.4467897,1.269859,1.129061
90.8015,108.9815,0.4009581,1.269694,1.129061
90.85133,109.6173,0.3342931,1.269694,1.122602
90.90246,106.9472,0.2495736,1.269694,1.129061
90.95079,106.0571,0.1842979,1.269694,1.122602
91.00079,98.04675,0.1426326,1.269859,1.122602
91.05092,96.90242,0.07041249,1.269694,1.122602
91.10196,95.75809,0.01624781,1.269694,1.122602
91.15224,93.08795,-0.02680679,1.269694,1.122602
91.20062,87.87486,-0.08374949,1.269694,1.122602
91.25067,83.42466,-0.1573583,1.269694,1.122602
91.30048,80.75454,-0.2837431,1.269859,1.122602
91.35236,78.21156,-0.3962397,1.269859,1.129061
91.40231,76.68578,-0.5017921,1.269694,1.129061
91.45104,75.16,-0.5476236,1.269694,1.129061
91.50047,94.2323,-0.6198437,1.269694,1.122602
91.55072,112.796,-0.6601203,1.269694,1.122602
91.60165,109.1087,-0.6962301,1.269694,1.122602
91.65211,107.3286,-0.722618,1.26953,1.122602
91.70067,105.4214,-0.7476177,1.269859,1.129061
91.75038,97.53816,-0.7698389,1.269694,1.122602
91.80129,97.15671,-0.7906718,1.269694,1.122602
91.85229,95.75809,-0.7962269,1.269694,1.122602
91.90187,91.18073,-0.7962269,1.269694,1.122602
91.9503,85.58618,-0.8017824,1.269694,1.122602
92.00129,83.29751,-0.8170598,1.269694,1.116143
92.05125,82.66177,-0.8476145,1.269694,1.122602
92.10224,78.97446,-0.8628919,1.269694,1.129061
92.15154,75.92289,-0.87678,1.269694,1.122602
92.20091,75.41429,-0.8920574,1.269694,1.122602
92.25147,103.7684,-0.9253896,1.269694,1.122602
92.30137,111.906,-0.9448338,1.269694,1.122602
92.35191,109.6173,-0.9614999,1.269859,1.122602
92.4015,108.8544,-0.9726105,1.269694,1.129061
92.45145,106.0571,-0.9809436,1.269694,1.122602
92.50028,98.6825,-0.9976097,1.269694,1.122602
92.55148,98.42819,-2.033689,1.269694,1.122602
92.60146,98.04675,-2.061466,1.269859,1.122602
92.65152,91.43503,-2.0198,1.269694,1.122602
92.70149,86.34908,-2.026744,1.269694,1.122602
92.75041,83.42466,-2.026744,1.269694,1.122602
92.80039,80.11879,-2.026744,1.269694,1.122602
92.85251,78.72016,-2.029522,1.269859,1.122602
92.9025,75.79574,-2.029522,1.269694,1.122602
92.95076,83.04321,-2.033689,1.269694,1.122602
93.00153,111.906,-2.035077,1.269694,1.122602
93.05084,111.906,-2.035077,1.269694,1.122602
93.10174,110.253,-2.0323,1.269694,1.122602
93.15199,108.7272,-2.018411,1.269694,1.122602
93.20074,104.1499,-2.004523,1.269694,1.116143
93.25034,98.80965,-1.979524,1.269694,1.122602
93.30146,98.42819,-1.92397,1.26953,1.122602
93.35148,98.04675,-1.876749,1.269694,1.122602
93.40228,91.43503,-1.832306,1.269694,1.122602
93.45068,86.73053,-1.811473,1.269859,1.122602
93.50147,83.42466,-1.773975,1.269694,1.122602
93.55071,81.00883,-1.772586,1.269694,1.122602
93.60203,79.3559,-1.773975,1.269694,1.116143
93.65222,75.79574,-1.769808,1.269694,1.122602
93.70057,78.33871,-1.76703,1.269859,1.116143
93.75137,94.61374,-1.771197,1.269694,1.122602
93.80086,110.7616,-1.772586,1.269694,1.122602
93.85202,108.8544,-1.773975,1.269694,1.122602
93.90203,106.82,-1.77953,1.269694,1.116143
93.95114,105.2942,-1.768419,1.269859,1.122602
94.0009,97.28386,-1.768419,1.269694,1.116143
94.05076,97.41101,-1.765642,1.269859,1.122602
94.10178,96.52097,-1.76703,1.26953,1.122602
94.15136,91.43503,-1.762864,1.269859,1.122602
94.20098,86.85767,-1.750364,1.269694,1.116143
94.25072,83.04321,-1.735087,1.269694,1.122602
94.30038,81.00883,-1.742031,1.269694,1.122602
94.35246,78.21156,-1.718421,1.269859,1.116143
94.40249,81.39028,-1.718421,1.269859,1.122602
94.45123,97.41101,-1.722587,1.269859,1.122602
94.50057,110.7616,-1.715643,1.269694,1.116143
94.55144,109.6173,-1.701755,1.269694,1.116143
94.60252,108.0915,-1.651756,1.269859,1.122602
94.65228,106.3114,-1.778141,1.269859,1.122602
94.70097,99.57254,-1.811473,1.269694,1.122602
94.75058,98.04675,-1.847583,1.269859,1.116143
94.80122,97.02956,-1.865638,1.269694,1.116143
94.8519,91.94361,-1.865638,1.269694,1.122602
94.9017,86.34908,-1.868416,1.269694,1.116143
94.95148,83.29751,-1.885082,1.269859,1.116143
95.00155,79.86449,-1.896193,1.269694,1.116143
95.05155,78.72016,-1.900359,1.269694,1.116143
95.10133,87.11198,-1.918414,1.269694,1.116143
95.15193,111.0159,-1.946191,1.269694,1.116143
95.20135,110.3802,-1.961469,1.269694,1.116143
95.25135,108.8544,-1.980913,1.269694,1.122602
95.30115,107.3286,-1.980913,1.269694,1.116143
95.35223,105.5485,-1.985079,1.269859,1.116143
95.40202,97.28386,-1.986468,1.269859,1.116143
95.45045,96.52097,-1.986468,1.269694,1.116143
95.50097,94.2323,-1.989246,1.26953,1.116143
95.55083,88.7649,-1.987857,1.269694,1.116143
95.60159,85.71333,-1.992023,1.269694,1.116143
95.65234,81.89888,-1.994801,1.269694,1.116143
95.70047,78.59301,-1.994801,1.269694,1.116143
95.75132,78.33871,-1.987857,1.269694,1.116143
95.80097,105.1671,-1.976746,1.269694,1.116143
95.8521,111.5245,-1.907304,1.269694,1.122602
95.90193,109.6173,-1.853138,1.269694,1.116143
95.95049,108.8544,-1.718421,1.269694,1.116143
96.00148,107.5829,-0.850392,1.269694,1.116143
96.05135,105.0399,0.2217969,1.269694,1.116143
96.10135,95.75809,0.6245621,1.269694,1.116143
96.15134,94.99519,0.8884427,1.269694,1.116143
96.20035,91.05358,1.123158,1.269859,1.116143
96.25085,88.5106,1.21621,1.269694,1.116143
96.3007,86.85767,1.223155,1.269694,1.116143
96.35184,84.44184,1.214822,1.269694,1.122602
96.40169,82.15317,1.187045,1.269694,1.116143
96.45126,81.39028,1.171767,1.269694,1.116143
96.50134,101.4798,1.159268,1.269694,1.116143
96.55103,113.8132,1.152323,1.269859,1.116143
96.60223,112.6688,1.148157,1.269859,1.116143
96.65221,111.1431,1.137046,1.269694,1.116143
96.70164,109.6173,1.130102,1.269694,1.116143
96.75151,100.844,1.114825,1.269694,1.116143
96.80143,98.80965,1.092603,1.269694,1.109684
96.85151,98.04675,1.07177,1.269859,1.109684
96.90159,94.99519,1.050938,1.269694,1.116143
96.95159,89.2735,0.9981613,1.269859,1.116143
97.0008,87.74771,0.9259418,1.269694,1.116143
97.05099,84.95044,0.7884459,1.269694,1.116143
97.10234,81.39028,0.5926186,1.269694,1.116143
97.15221,91.56216,0.3829027,1.269694,1.116143
97.20158,112.6688,0.1273552,1.26953,1.116143
97.25126,112.1602,-0.01014066,1.269694,1.116143
97.30109,111.0159,-0.004585109,1.269694,1.116143
97.35209,109.8716,0.01902533,1.269694,1.116143
97.40159,105.6757,0.03985825,1.269694,1.116143
97.45148,99.95398,0.06207942,1.269859,1.116143
97.5007,99.57254,0.07596803,1.269694,1.116143
97.55083,98.80965,0.08846737,1.269694,1.116143
97.60213,92.19792,0.1356882,1.269694,1.116143
97.65258,88.38345,0.1273552,1.269694,1.109684
97.70048,86.34908,0.09263416,1.269694,1.116143
97.75048,82.53461,0.05096883,1.269694,1.116143
97.80092,85.20473,0.03152518,1.269694,1.109684
97.85198,107.5829,0.005136716,1.269694,1.116143
97.90208,113.0503,0.003747957,1.269694,1.116143
97.95082,111.0159,0.05096883,1.269694,1.116143
98.00041,109.4901,0.09263416,1.269694,1.116143
98.05112,108.4729,0.1162446,1.269694,1.116143
98.10231,100.3354,0.1384663,1.269694,1.116143
98.15233,99.44539,0.1551324,1.269859,1.116143
98.20079,99.19109,0.1704093,1.269694,1.116143
98.25108,93.85085,0.1940197,1.269694,1.116143
98.30074,89.65494,0.2440181,1.269859,1.116143
98.35213,86.34908,0.03708022,1.269694,1.116143
98.40247,83.42466,-0.2934649,1.269859,1.109684
98.45084,81.77173,-0.4254052,1.269694,1.116143
98.50082,105.2942,-0.5962333,1.269694,1.116143
98.5511,111.5245,-0.7795607,1.269694,1.116143
98.60194,111.1431,-1.210103,1.269859,1.109684
98.65258,109.8716,-1.379542,1.269694,1.116143
98.70119,108.0915,-1.365654,1.269694,1.109684
98.75121,99.19109,-1.417041,1.269859,1.109684
98.80108,98.80965,-1.437874,1.269694,1.109684
98.85152,97.66531,-1.469818,1.269694,1.116143
98.9022,91.68932,-1.489261,1.269694,1.116143
98.95145,86.85767,-1.525371,1.269694,1.116143
99.00077,84.44184,-1.569814,1.269694,1.116143
99.05157,81.39028,-1.685088,1.269694,1.109684
99.10224,78.59301,-1.808696,1.269694,1.116143
99.15157,106.4386,-1.968413,1.269694,1.116143
99.2012,112.2874,-2.040633,1.269694,1.116143
99.25093,111.1431,-2.033689,1.269694,1.116143
99.30084,107.9643,-2.036466,1.269694,1.109684
99.35246,104.1499,-2.037855,1.269859,1.116143
99.40245,96.52097,-2.037855,1.269694,1.109684
99.45075,96.13953,-2.042022,1.269694,1.116143
99.50075,95.37663,-2.0448,1.269694,1.109684
99.55111,88.7649,-2.043411,1.269694,1.116143
99.60224,84.82329,-2.0448,1.269694,1.109684
99.65168,82.02603,-2.048966,1.269694,1.109684
99.70145,78.59301,-2.047577,1.269859,1.109684
99.75068,77.44867,-2.035077,1.269859,1.116143
99.80058,81.64457,-2.022578,1.269694,1.116143
99.85192,105.8028,-1.971191,1.269694,1.109684
99.90181,110.3802,-1.896193,1.269859,1.109684
99.95064,107.5829,-1.842028,1.269859,1.109684
100.0006,104.4042,-1.725365,1.269694,1.109684
100.0507,103.7684,-1.44204,1.269859,1.109684
100.1018,95.75809,-0.7448397,1.269694,1.116143
100.1523,94.2323,-0.4976253,1.269859,1.116143
100.2014,93.08795,-0.1809683,1.269694,1.109684
100.2506,85.33189,0.03569146,1.269694,1.109684
100.3014,81.77173,0.1676318,1.269859,1.109684
100.3526,79.73734,0.2634623,1.269694,1.109684
100.4022,76.17719,0.3412374,1.269859,1.109684
100.4512,82.91606,0.3995688,1.269859,1.116143
100.5015,92.19792,0.4217905,1.269859,1.109684
100.5515,110.3802,0.4412347,1.269859,1.109684
100.6015,107.5829,0.4440122,1.269859,1.109684
100.6521,104.5313,0.424568,1.269694,1.109684
100.7015,96.90242,0.4023469,1.269694,1.109684
100.7514,93.34225,0.3523485,1.269859,1.109684
100.8011,93.72369,0.2690178,1.269694,1.109684
100.8517,93.34225,0.2065196,1.269694,1.109684
100.9017,81.77173,0.1551324,1.269694,1.109684
100.9505,79.73734,0.05513511,1.269859,1.109684
101.0016,77.06723,-0.01569569,1.269694,1.109684
101.0517,75.03284,-0.112915,1.269694,1.109684
101.1016,72.10844,-0.1865238,1.269694,1.109684
101.1515,74.14281,-0.3115198,1.269694,1.109684
101.2009,106.1843,-0.3712405,1.269859,1.116143
101.2509,105.2942,-0.4434601,1.269694,1.109684
101.3004,100.7169,-0.5267913,1.269694,1.109684
101.3525,97.9196,-0.583734,1.269859,1.103225
101.4025,89.0192,-0.653176,1.269694,1.109684
101.4504,88.00201,-0.7253961,1.269694,1.109684
101.5012,87.87486,-0.7615058,1.269859,1.109684
101.5512,84.0604,-0.7851163,1.269694,1.109684
101.6025,79.3559,-0.8017824,1.269694,1.109684
101.6522,76.68578,-0.8378927,1.269694,1.109684
101.7009,74.65141,-0.8740025,1.269859,1.116143
101.7505,71.47269,-0.8878911,1.269694,1.109684
101.8009,81.26313,-0.9115015,1.269694,1.109684
101.8515,108.0915,-0.9462225,1.269694,1.109684
101.9025,110.3802,-0.9684438,1.269694,1.103225
101.9512,107.9643,-0.9823323,1.269859,1.109684
102.0009,105.1671,-1.050386,1.269694,1.109684
102.0508,100.844,-1.921192,1.269694,1.109684
102.1016,94.10515,-2.083687,1.269694,1.109684
102.1514,93.46941,-2.021189,1.269694,1.109684
102.2013,92.83366,-2.028133,1.269694,1.103225
102.2515,84.95044,-2.021189,1.269859,1.103225
102.3012,81.39028,-2.018411,1.269694,1.109684
102.3519,78.59301,-2.022578,1.269859,1.109684
102.4018,75.16,-2.022578,1.269694,1.109684
102.4516,72.74417,-2.025356,1.269694,1.103225
102.5014,77.57583,-2.023967,1.269694,1.109684
102.551,95.24948,-2.033689,1.269694,1.109684
102.6022,111.2702,-2.061466,1.269694,1.109684
102.6521,108.4729,-2.076743,1.269694,1.109684
102.7008,105.2942,-2.082298,1.269694,1.103225
102.7508,96.52097,-2.083687,1.269859,1.109684
102.8014,93.72369,-2.087854,1.269694,1.109684
102.8527,93.72369,-2.085076,1.269694,1.109684
102.9024,93.85085,-2.080909,1.269859,1.109684
102.9507,84.82329,-2.078132,1.269859,1.109684
103.0005,81.26313,-2.071187,1.269694,1.109684
103.0515,79.10161,-2.05591,1.269859,1.109684
103.1026,75.79574,-2.030911,1.269694,1.109684
103.1521,72.74417,-2.011467,1.269859,1.103225
103.2008,71.21839,-1.943414,1.269694,1.103225
103.2506,87.49342,-1.889249,1.269859,1.109684
103.3011,114.8304,-1.832306,1.269694,1.109684
103.3519,111.7788,-1.751753,1.269859,1.109684
103.4017,105.6757,-1.525371,1.269694,1.109684
103.4515,103.7684,-0.714285,1.269694,1.109684
103.5016,94.2323,-0.626788,1.269694,1.103225
103.5516,92.7065,-0.27541,1.269694,1.103225
103.6022,92.07076,-0.05041672,1.269694,1.109684
103.6522,86.09478,0.1481881,1.269694,1.103225
103.7011,81.77173,0.2606843,1.269694,1.103225
103.7514,78.21156,0.3384598,1.269694,1.103225
103.8009,76.68578,0.4273461,1.269694,1.103225
103.8515,74.65141,0.453734,1.269694,1.103225
103.9015,72.36273,0.4551228,1.269859,1.103225
103.9512,73.88851,0.4301236,1.269859,1.109684
104.0012,107.3286,0.3773477,1.269694,1.103225
104.0512,107.2015,0.3190162,1.269694,1.103225
104.1024,105.5485,0.2315188,1.269694,1.103225
104.1524,104.5313,0.1565212,1.269859,1.103225
104.2014,95.75809,0.07874555,1.269694,1.103225
104.2507,93.59654,0.007914746,1.269694,1.109684
104.3014,93.59654,-0.07819394,1.269694,1.103225
104.3524,93.08795,-0.1545803,1.269859,1.103225
104.4024,84.3147,-0.3156866,1.269694,1.103225
104.4512,82.91606,-0.4601262,1.269694,1.103225
104.5014,78.59301,-0.5587342,1.269694,1.103225
104.5514,76.68578,-0.653176,1.269694,1.103225
104.6024,74.26996,-0.7184517,1.269694,1.103225
104.6521,78.21156,-0.7892831,1.269694,1.103225
104.7007,111.0159,-0.7920606,1.269694,1.103225
104.7517,112.6688,-0.8281704,1.269694,1.103225
104.8015,107.5829,-0.8545588,1.269694,1.103225
104.8526,105.6757,-0.87678,1.269694,1.103225
104.9024,97.66531,-0.8948349,1.269859,1.109684
104.9507,94.99519,-0.9198346,1.269859,1.103225
105.0008,94.61374,-0.9448338,1.269694,1.103225
105.0511,93.85085,-0.9628887,1.269694,1.103225
105.1022,86.09478,-0.9767768,1.269694,1.103225
105.152,81.77173,-0.9892766,1.269694,1.103225
105.2014,78.21156,-1.003165,1.269859,1.103225
105.2507,77.06723,-1.242047,1.269694,1.103225
105.3015,75.03284,-2.161463,1.269694,1.103225
105.3516,72.61702,-2.014245,1.269859,1.103225
105.4016,99.44539,-2.030911,1.269694,1.103225
105.4506,115.0847,-2.029522,1.269859,1.109684
105.5015,111.3974,-2.026744,1.269859,1.103225
105.5514,108.8544,-2.028133,1.269859,1.103225
105.6021,106.0571,-2.028133,1.269859,1.103225
105.6518,98.42819,-2.028133,1.269694,1.103225
105.701,94.61374,-2.029522,1.269694,1.103225
105.7517,94.10515,-2.0323,1.269694,1.103225
105.8006,91.56216,-2.030911,1.269694,1.103225
105.8516,85.33189,-2.030911,1.269694,1.096766
105.9016,81.26313,-2.028133,1.26953,1.103225
105.9511,77.83012,-2.023967,1.269694,1.103225
106.0008,76.30434,-2.012856,1.269694,1.103225
106.0507,75.54144,-1.989246,1.269694,1.103225
106.1017,71.98129,-1.929525,1.269859,1.103225
106.1522,84.0604,-1.862861,1.269694,1.096766
106.2012,110.6345,-1.81564,1.269859,1.103225
106.2506,112.6688,-1.723976,1.269694,1.103225
106.3012,109.2358,-1.34621,1.269859,1.103225
106.3517,105.93,-0.6753977,1.269694,1.103225
106.4016,103.1327,-0.4490156,1.269694,1.103225
106.4513,94.99519,-0.2073567,1.26953,1.096766
106.5012,94.61374,-0.03513985,1.269859,1.096766
106.5517,94.99519,0.137077,1.270024,1.103225
106.6018,86.73053,0.2315188,1.269859,1.103225
106.6518,82.91606,0.2787396,1.269694,1.103225
106.7011,80.24594,0.3342931,1.269859,1.096766
106.7507,78.21156,0.3537372,1.269859,1.096766
106.8011,75.28716,0.3162382,1.269694,1.096766
106.8523,74.77856,0.2606843,1.269694,1.103225
106.9016,95.50377,0.166243,1.269694,1.103225
106.9507,114.0675,0.08568986,1.269859,1.103225
107.0005,111.6517,-0.0004183194,1.269694,1.103225
107.0517,110.1259,-0.1073594,1.269859,1.103225
107.1017,105.1671,-0.2045787,1.269694,1.103225
107.1525,95.88522,-0.3226309,1.269859,1.103225
107.201,95.12233,-0.4142946,1.269694,1.096766
107.2515,94.2323,-0.4962365,1.269694,1.096766
107.3012,90.41783,-0.5198469,1.269694,1.096766
107.3519,84.569,-0.5865115,1.269694,1.096766
107.4025,81.89888,-0.6128994,1.269694,1.103225
107.4513,79.22876,-0.687897,1.269694,1.096766
107.5008,77.06723,-0.7323404,1.269694,1.103225
107.5514,74.77856,-0.7476177,1.269694,1.103225
107.602,75.41429,-0.78095,1.269694,1.096766
107.6518,106.82,-0.8101155,1.269694,1.103225
107.7015,113.9403,-0.8240041,1.269694,1.103225
107.751,110.1259,-0.8351147,1.269859,1.096766
107.8015,105.6757,-0.8545588,1.269694,1.103225
107.8522,104.0227,-0.8628919,1.269694,1.096766
107.9022,94.99519,-0.8740025,1.269694,1.096766
107.9515,94.2323,-0.8865018,1.269694,1.103225
108.0012,93.59654,-0.8990017,1.269859,1.103225
108.0509,93.59654,-0.914279,1.269859,1.103225
108.1019,85.71333,-0.9309452,1.269694,1.096766
108.1525,80.11879,-0.9462225,1.269694,1.096766
108.2005,77.32152,-0.9587219,1.269694,1.096766
108.2505,75.16,-0.978166,1.269859,1.096766
108.3018,72.74417,-1.011498,1.269694,1.096766
108.352,70.58266,-1.028165,1.269859,1.096766
108.4019,75.66859,-1.726754,1.269859,1.096766
108.4515,113.0503,-2.178128,1.26953,1.096766
108.5005,109.1087,-2.0448,1.269694,1.096766
108.551,107.9643,-2.054521,1.269694,1.096766
108.6021,105.93,-2.047577,1.269694,1.096766
108.6519,99.19109,-2.043411,1.269694,1.096766
108.7007,93.72369,-2.043411,1.269694,1.096766
108.7511,93.2151,-2.046188,1.269694,1.096766
108.8009,88.89205,-2.048966,1.269859,1.096766
108.8517,83.17036,-2.048966,1.269694,1.096766
108.9027,79.86449,-2.050355,1.269694,1.103225
108.951,76.94007,-2.048966,1.269694,1.096766
109.001,74.52426,-2.048966,1.269859,1.096766
109.0509,73.37991,-2.054521,1.269694,1.096766
109.1022,70.4555,-2.047577,1.269694,1.096766
109.1516,67.91252,-2.025356,1.269859,1.096766
109.2011,74.52426,-2.011467,1.269859,1.096766
109.2509,109.8716,-1.986468,1.269859,1.096766
109.3009,108.4729,-1.918414,1.269694,1.096766
109.3519,106.9472,-1.847583,1.269694,1.096766
109.4024,103.8956,-1.782308,1.269694,1.096766
109.4508,101.2255,-1.554537,1.269694,1.096766
109.5009,93.34225,-0.7448397,1.269694,1.096766
109.5512,92.96081,-0.6295655,1.269859,1.096766
109.6026,91.05358,-0.2531883,1.269694,1.096766
109.6521,85.33189,-0.03097307,1.269694,1.096766
109.7014,80.88168,0.1412438,1.269859,1.096766
109.7507,77.95727,0.2662398,1.269859,1.096766
109.8017,75.54144,0.3079051,1.269694,1.096766
109.8516,74.52426,0.3787364,1.269694,1.096766
109.9026,71.59984,0.419013,1.269694,1.096766
109.9512,69.56546,0.4370679,1.269859,1.096766
110.0014,76.30434,0.4231793,1.269694,1.096766
110.0515,104.5313,0.3856807,1.269694,1.096766
110.1025,107.2015,0.3009608,1.269694,1.096766
110.1524,103.5141,0.2217969,1.269694,1.096766
110.2013,101.8612,0.1495769,1.269859,1.096766
110.2514,92.7065,0.0593019,1.26953,1.096766
110.3012,91.81647,-0.01152942,1.269694,1.096766
110.3517,92.19792,-0.06986088,1.269694,1.096766
110.4024,88.38345,-0.1615246,1.269694,1.096766
110.4506,83.55181,-0.2795763,1.269859,1.096766
110.5016,79.3559,-0.374018,1.269694,1.096766
110.5516,76.43149,-0.4809591,1.269694,1.096766
110.6026,74.14281,-0.533735,1.269694,1.096766
110.6526,71.72699,-0.5767896,1.269859,1.096766
110.7012,75.66859,-0.6601203,1.269694,1.090307
110.7511,75.92289,-0.714285,1.269694,1.096766
110.8014,112.4145,-0.7323404,1.269859,1.096766
110.8528,107.2015,-0.7420622,1.26953,1.096766
110.9027,104.0227,-0.7698389,1.269694,1.096766
110.951,101.7341,-0.7837275,1.269694,1.096766
111.001,93.34225,-0.8240041,1.269859,1.096766
111.0515,92.57936,-0.8587251,1.26953,1.096766
111.1023,92.57936,-0.871225,1.269694,1.096766
111.1521,85.71333,-0.8837243,1.269694,1.090307
111.2014,81.00883,-0.9017792,1.269859,1.096766
111.2512,78.33871,-0.9212233,1.269694,1.090307
111.3008,75.03284,-0.9434446,1.269859,1.096766
111.3522,73.25277,-0.969833,1.269694,1.096766
111.4019,71.09124,-0.9851099,1.269694,1.096766
111.4518,72.10844,-1.108718,1.269694,1.090307
111.5018,87.87486,-2.210072,1.269694,1.096766
111.5514,112.5417,-2.054521,1.269859,1.096766
111.6016,108.8544,-2.060077,1.269859,1.096766
111.6528,105.8028,-2.054521,1.269694,1.096766
111.7009,104.0227,-2.053133,1.269859,1.090307
111.7517,93.72369,-2.053133,1.269859,1.096766
111.8013,93.34225,-2.053133,1.269859,1.096766
111.8516,92.96081,-2.053133,1.269694,1.090307
111.9016,88.38345,-2.053133,1.269694,1.096766
111.9516,83.42466,-2.054521,1.269694,1.090307
112.001,80.37309,-2.058688,1.269859,1.096766
112.0506,77.19438,-2.05591,1.269694,1.090307
112.1026,74.26996,-2.064243,1.269694,1.090307
112.1523,73.25277,-2.075354,1.269859,1.090307
112.201,70.58266,-2.073965,1.269694,1.096766
112.2506,71.98129,-2.07952,1.269859,1.090307
112.3006,111.3974,-2.085076,1.269694,1.096766
112.3526,112.0331,-2.087854,1.269859,1.090307
112.4016,108.0915,-2.078132,1.269694,1.090307
112.4512,105.1671,-2.048966,1.26953,1.096766
112.5006,103.387,-2.014245,1.269694,1.096766
112.5506,94.35944,-1.980913,1.269694,1.090307
112.6016,93.34225,-1.915637,1.269694,1.090307
112.6516,93.08795,-1.844805,1.269694,1.090307
112.7016,88.5106,-1.789252,1.269694,1.090307
112.7516,82.91606,-1.640645,1.269694,1.090307
112.8014,79.3559,-0.7837275,1.269694,1.090307
112.8528,75.66859,-0.690675,1.269694,1.090307
112.9026,75.03284,-0.3865174,1.269694,1.090307
112.9512,73.25277,-0.1823575,1.269694,1.096766
113.0011,70.4555,0.02041409,1.269859,1.090307
113.0511,70.58266,0.1620762,1.269694,1.090307
113.1024,91.30788,0.2537404,1.269694,1.090307
113.1522,112.796,0.3370711,1.269694,1.090307
113.2009,107.4557,0.4065132,1.269694,1.090307
113.2516,104.7856,0.419013,1.26953,1.090307
113.3017,101.0983,0.4148462,1.269694,1.090307
113.3517,93.46941,0.3870695,1.269694,1.090307
113.4026,93.2151,0.3273493,1.269694,1.090307
113.4507,93.2151,0.2579067,1.269694,1.090307
113.501,85.20473,0.1815204,1.269694,1.090307
113.5509,83.04321,0.1273552,1.269694,1.090307
113.6017,79.61021,0.02319212,1.269694,1.090307
113.6527,76.94007,-0.07124963,1.269694,1.090307
113.7007,74.65141,-0.1448585,1.269694,1.090307
113.7507,74.77856,-0.2837431,1.269859,1.090307
113.8017,107.71,-0.3892954,1.269694,1.090307
113.852,113.5589,-0.4781816,1.269859,1.090307
113.9026,110.1259,-0.5198469,1.269694,1.090307
113.9512,108.2186,-0.5781784,1.269859,1.090307
114.0011,104.1499,-0.6295655,1.269694,1.090307
114.0517,96.13953,-0.7073412,1.269694,1.090307
114.1017,94.61374,-0.7378954,1.269859,1.090307
114.1516,94.48659,-0.7601171,1.269859,1.090307
114.2014,88.5106,-0.78095,1.269694,1.090307
114.2512,83.67896,-0.8045599,1.269694,1.090307
114.3009,79.61021,-0.8378927,1.269859,1.090307
114.3516,76.68578,-0.8670582,1.269859,1.090307
114.4016,74.26996,-0.8906686,1.269694,1.090307
114.4515,72.61702,-0.9045572,1.269694,1.090307
114.5017,97.41101,-0.9531669,1.269859,1.090307
114.5517,113.8132,-0.9934434,1.269694,1.083847
114.602,111.5245,-1.469818,1.269694,1.083847
114.6516,108.7272,-2.107297,1.26953,1.090307
114.7014,106.0571,-1.980913,1.269694,1.090307
114.7514,101.4798,-1.992023,1.269694,1.090307
114.8012,94.74089,-1.992023,1.269859,1.083847
114.8525,94.10515,-1.994801,1.269859,1.090307
114.9023,91.81647,-1.993412,1.269694,1.083847
114.951,85.96764,-1.993412,1.269859,1.096766
115.0007,82.02603,-1.992023,1.269694,1.090307
115.0515,80.50024,-1.990634,1.269694,1.090307
115.1028,76.30434,-1.994801,1.269694,1.090307
115.1522,74.52426,-1.99619,1.269859,1.090307
115.2011,71.59984,-1.997579,1.269859,1.090307
115.2513,74.52426,-2.003134,1.269694,1.083847
115.3018,101.8612,-2.051744,1.269694,1.090307
115.3524,110.5073,-2.175351,1.269694,1.083847
115.4022,108.0915,-2.183684,1.269694,1.083847
115.4507,106.3114,-2.186462,1.269694,1.090307
115.5017,100.7169,-2.185073,1.269694,1.090307
115.551,94.35944,-2.18924,1.269694,1.090307
115.602,93.59654,-2.17674,1.269694,1.083847
115.6519,93.59654,-2.167018,1.269859,1.083847
115.7015,86.47623,-2.133686,1.269859,1.090307
115.7519,81.77173,-2.080909,1.269859,1.083847
115.8017,79.61021,-2.0323,1.269694,1.090307
115.8519,76.30434,-1.987857,1.269694,1.083847
115.9025,75.03284,-1.955913,1.269694,1.083847
115.9518,72.23557,-1.889249,1.269859,1.083847
116.0014,70.83694,-1.829529,1.269859,1.083847
116.0517,76.17719,-1.664255,1.269694,1.083847
116.1027,110.7616,-0.7476177,1.269694,1.090307
116.1526,109.8716,-0.687897,1.269694,1.090307
116.2007,107.5829,-0.3504076,1.269694,1.083847
116.2507,106.0571,-0.1448585,1.269694,1.083847
116.3012,98.80965,0.03708022,1.269694,1.083847
116.3522,94.48659,0.1592987,1.269859,1.083847
116.4026,93.85085,0.2731841,1.269694,1.083847
116.4513,90.92643,0.317627,1.269859,1.083847
116.5016,84.95044,0.3759589,1.269694,1.083847
116.5511,83.04321,0.3995688,1.269859,1.083847
116.6021,80.24594,0.3606815,1.269694,1.083847
116.6525,77.95727,0.3023501,1.269859,1.083847
116.7016,75.66859,0.2551292,1.269694,1.083847
116.7516,79.10161,0.1356882,1.269694,1.090307
116.8017,102.1155,0.07041249,1.269694,1.083847
116.8521,111.3974,0.0009704395,1.269694,1.090307
116.9024,108.4729,-0.07402715,1.269859,1.090307
116.9511,106.6929,-0.1448585,1.269694,1.083847
117.0011,100.4626,-0.2184673,1.269859,1.083847
117.0509,93.85085,-0.3226309,1.269859,1.083847
117.1029,92.96081,-0.3976285,1.269694,1.083847
117.1524,92.57936,-0.464293,1.269859,1.090307
117.2009,87.74771,-0.4892922,1.269694,1.083847
117.2519,82.66177,-0.5212357,1.269694,1.083847
117.3012,80.62739,-0.5642898,1.269694,1.083847
117.3521,76.68578,-0.6115107,1.269859,1.083847
117.4029,75.03284,-0.6656759,1.269694,1.090307
117.4517,77.06723,-0.7073412,1.269694,1.083847
117.5016,107.8372,-0.7240073,1.269694,1.083847
117.5516,110.6345,-0.7434509,1.269694,1.083847
117.6029,107.9643,-0.7573396,1.269694,1.083847
117.6525,106.82,-0.7712277,1.269694,1.083847
117.7009,99.95398,-0.7878938,1.269859,1.083847
117.7509,94.10515,-0.8281704,1.269694,1.083847
117.8013,93.2151,-0.8378927,1.269694,1.083847
117.8527,92.57936,-0.8476145,1.269694,1.083847
117.902,85.20473,-0.8559476,1.269694,1.083847
117.9519,80.88168,-0.8628919,1.269694,1.083847
118.0019,78.33871,-0.8740025,1.269694,1.083847
118.0508,77.19438,-0.8878911,1.269694,1.083847
118.1017,73.12562,-0.9128903,1.269694,1.083847
118.1521,70.58266,-0.9448338,1.269859,1.083847
118.2008,71.09124,-0.9490001,1.269694,1.083847
118.2518,97.9196,-1.414263,1.269694,1.077388
118.3018,111.5245,-2.126741,1.269694,1.083847
118.3526,109.2358,-1.989246,1.269859,1.083847
118.4021,106.0571,-1.998967,1.269694,1.083847
118.4519,103.8956,-1.989246,1.269694,1.083847
118.5015,93.46941,-1.990634,1.269694,1.083847
118.5513,92.96081,-1.990634,1.269859,1.083847
118.6023,91.81647,-1.990634,1.269694,1.083847
118.6523,87.23911,-1.989246,1.269694,1.083847
118.7015,82.40748,-1.989246,1.269859,1.083847
118.7512,78.59301,-1.990634,1.269859,1.083847
118.8012,75.28716,-1.989246,1.269694,1.083847
118.8519,73.12562,-1.990634,1.269694,1.083847
118.9021,71.98129,-1.993412,1.269694,1.083847
118.9515,68.92972,-1.994801,1.269859,1.077388
119.0017,72.74417,-1.994801,1.269694,1.083847
119.0512,87.49342,-1.99619,1.269694,1.083847
119.1023,110.3802,-1.989246,1.269694,1.077388
119.1525,108.3458,-1.967024,1.269694,1.077388
119.2012,105.93,-1.921192,1.269859,1.077388
119.2519,103.7684,-1.846195,1.26953,1.077388
119.3019,93.978,-1.797585,1.269694,1.083847
119.3525,92.57936,-1.705921,1.269859,1.083847
119.4025,92.32506,-1.367043,1.269859,1.077388
119.4512,85.33189,-0.7003969,1.269694,1.077388
119.5011,81.51743,-0.5031808,1.269694,1.077388
119.5514,78.46587,-0.1712464,1.269859,1.083847
119.6026,75.16,0.07041249,1.269694,1.083847
119.6523,73.25277,0.2176301,1.269859,1.083847
119.7013,71.59984,0.3079051,1.269859,1.083847
119.7511,69.31116,0.381514,1.269694,1.077388
119.8011,95.63092,0.4606783,1.269694,1.083847
119.8518,111.6517,0.517621,1.269694,1.077388
119.9026,109.2358,0.5398427,1.269694,1.077388
119.9511,104.4042,0.5384535,1.269694,1.083847
120.0011,102.3698,0.5162323,1.269859,1.083847
120.0516,98.6825,0.4620671,1.269694,1.077388
120.1025,91.94361,0.3995688,1.269694,1.083847
120.1522,91.05358,0.3454042,1.269694,1.083847
120.2019,88.5106,0.294017,1.269694,1.083847
120.2519,82.66177,0.2106858,1.269694,1.077388
120.3008,80.62739,0.1551324,1.269694,1.077388
120.3517,76.30434,0.09263416,1.269859,1.083847
120.4018,73.88851,0.01624781,1.269694,1.077388
120.4516,71.98129,-0.03513985,1.269694,1.077388
120.5017,77.19438,-0.112915,1.269694,1.077388
120.5516,108.2186,-0.1712464,1.269859,1.077388
120.6029,108.8544,-0.2295779,1.269694,1.077388
120.6526,106.9472,-0.2837431,1.269859,1.083847
120.7016,104.5313,-0.3351302,1.269694,1.077388
120.7518,96.64812,-0.3851286,1.269859,1.077388
120.8009,91.18073,-0.4309607,1.269694,1.083847
120.8521,90.67213,-0.4698485,1.269859,1.083847
120.9021,90.67213,-0.4712373,1.269694,1.077388
120.9514,82.28033,-0.5059583,1.269859,1.077388
121.0011,78.84731,-0.5212357,1.269694,1.083847
121.0509,76.81293,-0.5906777,1.269694,1.083847
121.1019,74.26996,-0.6490092,1.269859,1.077388
121.1518,71.98129,-0.6990081,1.269694,1.083847
121.2019,72.74417,-0.7128962,1.269694,1.077388
121.2519,87.11198,-0.751784,1.269694,1.077388
121.3019,111.2702,-0.7670614,1.269694,1.077388
121.3518,109.9987,-0.7795607,1.269859,1.077388
121.4017,107.2015,-0.8003936,1.269694,1.077388
121.4516,104.5313,-0.8267816,1.269694,1.077388
121.5018,93.85085,-0.8406702,1.269694,1.077388
121.5511,93.46941,-0.8656694,1.269859,1.077388
121.6025,92.7065,-0.8920574,1.26953,1.077388
121.6524,87.87486,-0.9101123,1.269694,1.077388
121.7012,83.04321,-0.9628887,1.269694,1.077388
121.7519,78.72016,-1.268435,1.269694,1.077388
121.8017,75.79574,-1.669811,1.269859,1.077388
121.8518,74.01566,-1.696199,1.269694,1.083847
121.9019,71.59984,-1.711476,1.269859,1.077388
121.9509,74.39711,-1.721198,1.269694,1.077388
122.0009,111.1431,-1.780919,1.269694,1.077388
122.0509,112.6688,-1.808696,1.269859,1.077388
122.1021,111.3974,-1.822584,1.269694,1.077388
122.1518,106.82,-1.848972,1.269859,1.077388
122.2016,103.387,-1.854528,1.269694,1.083847
122.2515,94.99519,-1.854528,1.269694,1.077388
122.3015,94.61374,-1.86425,1.269694,1.077388
122.352,93.85085,-1.867027,1.269694,1.077388
122.4026,89.0192,-1.869805,1.269859,1.077388
122.4513,83.67896,-1.872583,1.269694,1.077388
122.5012,80.37309,-1.87536,1.269694,1.077388
122.5515,78.21156,-1.880916,1.269859,1.077388
122.6029,76.30434,-1.882304,1.26953,1.077388
122.6527,73.76136,-1.889249,1.269694,1.077388
122.7009,72.61702,-1.890638,1.269694,1.077388
122.7516,87.11198,-1.908692,1.269859,1.077388
122.8012,111.5245,-1.91147,1.269694,1.083847
122.8525,111.0159,-1.900359,1.269694,1.077388
122.9023,108.8544,-1.87536,1.26953,1.077388
122.9517,107.2015,-1.826751,1.269859,1.077388
123.0011,96.39381,-1.758697,1.269694,1.077388
123.0517,94.74089,-1.604535,1.269694,1.077388
123.1028,94.10515,-1.422597,1.269694,1.077388
123.1522,91.43503,-1.276768,1.269859,1.077388
123.2018,86.09478,-1.133717,1.269694,1.077388
123.2517,81.77173,-0.7323404,1.269694,1.077388
123.3016,79.73734,-0.09763759,1.269694,1.077388
123.3518,76.68578,0.04819132,1.269694,1.077388
123.4029,75.92289,0.2092971,1.269859,1.070929
123.4514,72.36273,0.3426261,1.269694,1.077388
123.5016,77.32152,0.4273461,1.269694,1.077388
123.5518,111.2702,0.4967881,1.269694,1.070929
123.6028,110.6345,0.5315096,1.269694,1.077388
123.6527,107.71,0.5717857,1.269859,1.077388
123.7014,105.6757,0.5870631,1.269694,1.077388
123.7512,101.6069,0.5981742,1.269859,1.077388
123.8017,93.85085,0.5995629,1.269694,1.077388
123.8528,93.34225,0.5898411,1.269694,1.070929
123.9027,94.10515,0.5717857,1.269859,1.070929
123.951,89.2735,0.5037324,1.270024,1.077388
124.0016,84.569,0.4495677,1.269694,1.077388
124.0516,82.53461,0.3981801,1.269694,1.077388
124.1028,78.72016,0.3537372,1.269694,1.077388
124.1523,77.44867,0.2704066,1.269694,1.077388
124.2019,75.41429,0.2079083,1.269694,1.070929
124.2513,86.60338,0.1454101,1.269694,1.070929
124.3014,112.6688,0.09541168,1.269694,1.077388
124.3521,111.2702,0.07319051,1.269859,1.070929
124.4022,108.9815,0.03708022,1.269694,1.077388
124.4519,107.2015,-0.04069489,1.269694,1.077388
124.5019,97.66531,-0.1018044,1.269859,1.077388
124.5516,95.63092,-0.1420809,1.269694,1.077388
124.6028,95.37663,-0.2198561,1.269694,1.070929
124.6518,91.56216,-0.2934649,1.269859,1.077388
124.7018,86.34908,-0.3851286,1.269859,1.070929
124.7516,83.04321,-0.4476269,1.269859,1.077388
124.8016,79.10161,-0.5073471,1.269859,1.077388
124.8528,76.94007,-0.5490124,1.26953,1.070929
124.9028,73.88851,-0.6045663,1.269694,1.070929
124.9513,72.36273,-0.6573428,1.269859,1.070929
125.0019,81.00883,-0.7128962,1.269859,1.077388
125.051,98.42819,-1.154549,1.269694,1.070929
125.1023,111.0159,-1.525371,1.269859,1.070929
125.152,109.8716,-1.467039,1.269859,1.070929
125.2011,108.2186,-1.497594,1.269859,1.077388
125.2508,100.9712,-1.512872,1.269694,1.077388
125.3008,96.13953,-1.580925,1.269859,1.070929
125.3521,95.75809,-1.632312,1.269694,1.070929
125.4023,90.67213,-1.664255,1.269694,1.070929
125.4508,85.45904,-1.704532,1.269694,1.077388
125.501,82.40748,-1.725365,1.269694,1.077388
125.5508,79.3559,-1.762864,1.269694,1.077388
125.6025,75.41429,-1.782308,1.269694,1.070929
125.6529,73.12562,-1.822584,1.269694,1.070929
125.7019,72.36273,-1.854528,1.269859,1.077388
125.7518,69.05686,-1.87536,1.269859,1.070929
125.801,67.91252,-1.88786,1.269694,1.070929
125.8524,91.68932,-2.039244,1.269694,1.070929
125.9019,111.1431,-2.204517,1.269859,1.077388
125.9508,110.3802,-2.192017,1.269694,1.070929
126.0009,107.5829,-2.194795,1.269694,1.070929
126.051,106.82,-2.194795,1.269859,1.077388
126.1021,96.90242,-2.193406,1.269694,1.070929
126.1518,93.72369,-2.201739,1.269694,1.070929
126.2011,92.96081,-2.197572,1.269694,1.077388
126.2508,89.78209,-2.172573,1.269694,1.070929
126.3017,84.44184,-2.114242,1.269694,1.077388
126.353,80.11879,-2.062855,1.269694,1.070929
126.4027,76.68578,-2.010078,1.269694,1.070929
126.4509,74.26996,-1.96008,1.269859,1.070929
126.5015,71.98129,-1.869805,1.269694,1.070929
126.5517,70.4555,-1.818417,1.269694,1.070929
126.6023,67.91252,-1.148994,1.269859,1.077388
126.6523,68.03967,-0.7462285,1.269694,1.070929
126.7015,92.07076,-0.6976188,1.269694,1.070929
126.7512,109.363,-0.3629074,1.270024,1.070929
126.8012,105.2942,-0.08513825,1.269859,1.070929
126.8523,104.0227,0.1384663,1.269694,1.070929
126.902,100.4626,0.291239,1.269859,1.070929
126.9519,92.96081,0.3884583,1.269859,1.070929
127.0014,92.7065,0.4648446,1.269694,1.070929
127.0519,92.19792,0.5273429,1.269859,1.077388
127.1019,88.38345,0.5773413,1.269694,1.070929
127.1525,83.29751,0.6023405,1.269859,1.070929
127.2018,79.10161,0.6065072,1.269859,1.070929
127.2513,76.68578,0.5884519,1.269859,1.070929
127.3012,75.03284,0.5301204,1.269859,1.070929
127.3521,72.74417,0.4523453,1.269694,1.070929
127.402,74.52426,0.384292,1.269694,1.070929
127.4508,98.9368,0.3106831,1.269859,1.070929
127.5009,112.2874,0.2398518,1.269859,1.070929
127.5517,107.9643,0.1745761,1.269694,1.070929
127.6024,105.6757,0.1037447,1.269694,1.070929
127.6523,103.0055,0.04402453,1.26953,1.070929
