t_sec,abp_mmHg,resp_arbunit,spo2_unitless,scon_muS
0,0.5237532,-1.213845,0.9699246,2.84074
0.04860778,0.3966055,-1.194855,0.9598774,2.84074
0.09926217,0.5237532,-1.202058,0.9598774,2.84074
0.1488395,0.3966055,-1.164733,0.9598774,2.834281
0.1984706,0.3966055,-1.129372,0.9598774,2.834281
0.2493411,0.5237532,-1.083534,0.9598774,2.834281
0.2985101,0.3966055,-0.8347002,0.9598774,2.834281
0.349012,0.3966055,-0.5832469,0.9598774,2.834281
0.3985915,0.5237532,-0.5040129,0.9598774,2.827821
0.4484683,0.3966055,-0.4339464,0.9600421,2.834281
0.4992613,0.3966055,-0.4182306,0.9597127,2.827821
0.5485823,0.5237532,-0.4064437,0.9598774,2.827821
0.5992168,0.3966055,-0.4084082,0.9598774,2.827821
0.6492149,0.3966055,-0.4149565,0.9598774,2.827821
0.6985719,0.5237532,-0.4143017,0.9697599,2.827821
0.7502083,0.5237532,-0.4260885,0.9699246,2.827821
0.7985685,0.3966055,-0.4594847,0.9697599,2.821362
0.8483303,0.3966055,-0.2296406,0.9699246,2.821362
0.898787,0.6509008,0.4572724,0.9697599,2.821362
0.9489639,0.3966055,0.7990918,0.9699246,2.821362
0.9997266,0.269454,0.9104123,0.9699246,2.821362
1.049219,0.5237532,1.015839,0.9697599,2.821362
1.098314,0.3966055,1.076738,0.9697599,2.821362
1.148378,0.5237532,1.097693,0.9697599,2.821362
1.19838,0.5237532,1.074774,0.9699246,2.814903
1.24963,0.5237532,1.036139,0.9697599,2.814903
1.299428,0.5237532,0.9994687,0.9699246,2.814903
1.349126,0.3966055,0.9438084,0.9597127,2.808444
1.39882,0.5237532,0.4107797,0.9598774,2.814903
1.448841,0.3966055,-0.4915712,0.9598774,2.814903
1.499571,0.5237532,-0.4562105,0.9597127,2.808444
1.548255,0.3966055,-0.4496623,0.9598774,2.808444
1.598926,0.269454,-0.4149565,0.9598774,2.808444
1.648853,0.3966055,-0.4084082,0.9597127,2.808444
1.698424,0.3966055,-0.3913827,0.9598774,2.801985
1.749333,0.3966055,-0.3848345,0.9598774,2.808444
1.799101,0.5237532,-0.378941,0.9598774,2.801985
1.848837,0.5237532,-0.3835248,0.9598774,2.801985
1.898574,0.5237532,-0.3737024,0.9597127,2.801985
1.948375,0.269454,-0.4136468,0.9598774,2.801985
1.999842,0.5237532,-0.4359109,0.9598774,2.801985
2.048507,0.5237532,-0.4463881,0.9597127,2.801985
2.099455,0.5237532,-0.5360993,0.9600421,2.795526
2.149083,0.3966055,-0.824223,0.9597127,2.801985
2.198828,0.5237532,-0.9931682,0.9600421,2.795526
2.250116,0.5237532,-1.023945,0.9598774,2.795526
2.298797,0.5237532,-1.050138,0.9598774,2.795526
2.349375,0.6509008,-1.054067,0.9598774,2.795526
2.399103,0.3966055,-1.048828,0.9598774,2.789066
2.448825,0.5237532,-1.033113,0.9598774,2.795526
2.499964,0.5237532,-1.028529,0.9598774,2.789066
2.548375,0.3966055,-1.026564,0.9598774,2.789066
2.598377,0.269454,-1.025255,0.9598774,2.789066
2.648371,0.5237532,-1.00561,0.9597127,2.789066
2.698808,0.3966055,-0.9964424,0.9598774,2.782607
2.74958,0.5237532,-1.001026,0.9598774,2.789066
2.799329,0.3966055,-1.000371,0.9600421,2.789066
2.849078,0.5237532,-1.029838,0.9597127,2.782607
2.898337,0.5237532,-1.131337,0.9600421,2.782607
2.949096,0.5237532,-1.190926,0.9598774,2.782607
3.000075,0.3966055,-1.179139,0.9600421,2.782607
3.048848,0.5237532,-1.167352,0.9600421,2.776148
3.098328,0.5237532,-1.120205,0.9598774,2.776148
3.149204,0.5237532,-1.101215,0.9600421,2.776148
3.199037,0.6509008,-1.087463,0.9598774,2.776148
3.249616,0.5237532,-1.076331,0.9598774,2.776148
3.299302,0.5237532,-1.075676,0.9598774,2.769689
3.348693,0.5237532,-1.073712,0.9598774,2.776148
3.398592,0.5237532,-1.073057,0.9598774,2.776148
3.448365,0.3966055,-1.073712,0.9598774,2.769689
3.499306,0.5237532,-1.071092,0.9598774,2.769689
3.548573,0.3966055,-1.067164,0.9598774,2.769689
3.59945,0.5237532,-1.069783,0.9600421,2.769689
3.649451,0.5237532,-1.087463,0.9600421,2.769689
3.699199,0.3966055,-1.107108,0.9597127,2.76323
3.750046,0.5237532,-1.116276,0.9597127,2.769689
3.798492,0.6509008,-1.11693,0.9597127,2.76323
3.848359,0.6509008,-1.113656,0.9598774,2.76323
3.899447,0.5237532,-1.110382,0.9598774,2.76323
3.948799,0.5237532,-1.101215,0.9597127,2.76323
3.999448,0.3966055,-1.084844,0.9600421,2.756771
4.049366,0.5237532,-1.071092,0.9597127,2.756771
4.099212,0.5237532,-1.047519,0.9598774,2.76323
4.149316,0.3966055,-1.027219,0.9598774,2.756771
4.199061,0.5237532,-1.014123,0.9598774,2.756771
4.250321,0.5237532,-0.9014925,0.9598774,2.756771
4.299497,0.5237532,-0.7593952,0.9597127,2.756771
4.349968,0.5237532,-0.5642568,0.9598774,2.750311
4.398826,0.9051962,-0.5347897,0.9598774,2.750311
4.448699,0.6509008,-0.5151449,0.9598774,2.750311
4.499951,0.5237532,-0.4529364,0.9597127,2.743852
4.548299,0.6509008,-0.4103727,0.9597127,2.750311
4.600474,0.7780523,-0.4391851,0.9598774,2.743852
4.649193,0.9051962,-0.4044792,0.9597127,2.743852
4.699038,0.7780523,-0.3900731,0.9597127,2.743852
4.74969,0.5237532,-0.3953117,0.9597127,2.743852
4.798364,0.7780523,-0.4031696,0.9598774,2.743852
4.850083,0.6509008,-0.4162661,0.9598774,2.743852
4.898835,0.5237532,-0.4234692,0.9598774,2.743852
4.948902,0.5237532,-0.4293627,0.9598774,2.743852
4.999794,0.3966055,-0.3350677,0.9600421,2.737393
5.048565,0.3966055,-0.1012946,0.9597127,2.737393
5.09961,0.6509008,0.1698035,0.9597127,2.737393
5.149509,0.5237532,0.1763518,0.9597127,2.737393
5.199044,0.7780523,0.1377171,0.9598774,2.730934
5.250092,0.7780523,0.1829001,0.9598774,2.730934
5.298836,0.6509008,0.1423008,0.9597127,2.737393
5.349563,0.5237532,0.1010468,0.9597127,2.730934
5.398814,0.6509008,-0.01420268,0.9598774,2.730934
5.449189,0.7780523,-0.08295945,0.9598774,2.730934
5.500438,0.6509008,-0.1824931,0.9598774,2.730934
5.548812,0.5237532,-0.4385302,0.9598774,2.724475
5.599438,0.6509008,-0.4326368,0.9598774,2.724475
5.649064,0.6509008,-0.428053,0.9598774,2.724475
5.699486,0.6509008,-0.4136468,0.9597127,2.724475
5.749755,0.3966055,-0.4070986,0.9598774,2.718016
5.799037,0.5237532,-0.3985858,0.9598774,2.724475
5.849396,0.5237532,-0.3972761,0.9598774,2.724475
5.898683,0.6509008,-0.3782862,0.9597127,2.724475
5.948659,0.3966055,-0.3900731,0.9598774,2.718016
5.999479,0.6509008,-0.3815603,0.9598774,2.718016
6.049176,0.7780523,-0.3874538,0.9598774,2.718016
6.099817,0.9051962,-0.3907279,0.9598774,2.718016
6.148558,0.5237532,-0.3933472,0.9598774,2.718016
6.198477,0.7780523,-0.4234692,0.9598774,2.718016
6.249602,0.9051962,-0.4293627,0.9598774,2.711556
6.299477,0.9051962,-0.4673426,0.9598774,2.711556
6.349398,0.3966055,-0.5288962,0.9598774,2.711556
6.39917,0.9051962,-0.5871758,0.9598774,2.711556
6.448602,0.9051962,-0.6441457,0.9598774,2.711556
6.499674,0.9051962,-0.6860546,0.9598774,2.711556
6.548476,0.6509008,-0.7489179,0.9598774,2.705097
6.599475,0.9051962,-0.8137457,0.9598774,2.705097
6.649469,0.9051962,-1.069128,0.9598774,2.705097
6.699478,0.9051962,-1.223012,0.9597127,2.705097
6.749427,0.5237532,-1.28784,0.9597127,2.705097
6.798419,0.7780523,-1.28653,0.9598774,2.698638
6.849566,0.9051962,-1.291114,0.9600421,2.698638
6.899268,0.9051962,-1.279327,0.9597127,2.698638
6.948768,0.5237532,-1.264266,0.9598774,2.698638
6.99969,0.9051962,-1.255754,0.9598774,2.698638
7.049553,0.9051962,-1.254444,0.9598774,2.698638
7.100553,0.9051962,-1.251825,0.9598774,2.692179
7.1486,92.57936,-1.245276,0.9598774,2.698638
7.19939,87.11198,-1.242002,0.9598774,2.692179
7.250053,83.67896,-1.237418,0.9600421,2.692179
7.298593,82.02603,-1.236764,0.9598774,2.692179
7.350285,80.50024,-1.231525,0.9598774,2.692179
7.399429,78.97446,-1.254444,0.9598774,2.68572
7.449053,76.81293,-1.302246,0.9598774,2.692179
7.49956,103.0055,-1.306175,0.9597127,2.68572
7.548924,133.0126,-1.326475,0.9598774,2.68572
7.600258,123.4765,-1.30814,0.9598774,2.68572
7.648677,104.4042,-1.293079,0.9598774,2.679261
7.699153,102.2427,-1.262957,0.9598774,2.68572
7.74953,99.44539,-1.205987,0.9598774,2.679261
7.798511,101.8612,-1.128717,0.9598774,2.679261
7.849444,106.0571,-1.134611,0.9598774,2.679261
7.899443,93.08795,-0.9014925,0.9597127,2.679261
7.94929,87.11198,-0.6631356,0.9597127,2.672801
8.000024,84.44184,-0.5282415,0.9598774,2.679261
8.049182,82.78893,-0.4509719,0.9597127,2.672801
8.099923,81.77173,-0.4064437,0.9597127,2.679261
8.148675,79.86449,-0.4018599,0.9597127,2.672801
8.199528,77.19438,-0.416921,0.9600421,2.672801
8.249384,103.0055,-0.4201951,0.9600421,2.672801
8.298674,131.3597,-0.4057889,0.9598774,2.672801
8.349368,127.2909,-0.3894182,0.9598774,2.672801
8.398594,105.6757,-0.4064437,0.9598774,2.666342
8.449322,99.19109,-0.4339464,0.9598774,2.666342
8.500413,96.52097,-0.4378754,0.9597127,2.666342
8.548838,102.2427,-0.4444237,0.9600421,2.666342
8.599408,103.2598,0.05520893,0.9598774,2.666342
8.648562,102.497,0.2307024,0.9597127,2.659883
8.698419,89.5278,0.2254638,0.9597127,2.666342
8.750422,85.96764,0.6655072,0.9598774,2.666342
8.798654,85.33189,0.828559,0.9598774,2.666342
8.850296,84.95044,0.4677496,0.9598774,2.666342
8.898835,82.53461,-0.567531,0.9598774,2.659883
8.948812,78.84731,-0.4516267,0.9598774,2.653424
9.000182,93.46941,-0.4562105,0.9598774,2.653424
9.049043,131.3597,-0.4450785,0.9598774,2.653424
9.099811,125.0023,-0.4418044,0.9598774,2.653424
9.148562,106.0571,-0.4385302,0.9597127,2.646965
9.199532,98.04675,-0.4332916,0.9598774,2.653424
9.249802,95.37663,-0.4267433,0.9598774,2.653424
9.298506,100.3354,-0.3953117,0.9597127,2.646965
9.349831,103.2598,-0.3553673,0.9597127,2.646965
9.399137,101.6069,-0.4110275,0.9598774,2.653424
9.449275,87.62056,-0.4660329,0.9600421,2.646965
9.500303,83.42466,-0.5321704,0.9598774,2.646965
9.549057,81.64457,-0.5498507,0.9598774,2.646965
9.600238,79.73734,-0.5780082,0.9598774,2.640506
9.649378,79.86449,-0.5832469,0.9598774,2.646965
9.699086,78.84731,-0.8216037,0.9598774,2.640506
9.75004,81.39028,-1.008229,0.9598774,2.634047
9.798556,107.8372,-1.036387,0.9598774,2.640506
9.850358,131.8683,-1.029838,0.9598774,2.646965
9.899559,109.4901,-1.031803,0.9598774,2.627587
9.949371,104.4042,-1.067164,0.9597127,2.634047
10.00054,101.3526,-1.086154,0.9598774,2.634047
10.04856,99.95398,-1.112347,0.9597127,2.634047
10.09956,102.6241,-1.162768,0.9597127,2.634047
10.14908,102.497,-1.455476,0.9598774,2.634047
10.19879,92.57936,-2.322466,0.9598774,2.634047
10.25038,87.74771,-3.660276,0.9598774,2.634047
10.29875,84.3147,-4.409398,0.9597127,2.627587
10.34954,83.17036,-5.033448,0.9597127,2.627587
10.39926,81.00883,-4.96862,0.9598774,2.627587
10.44955,81.51743,-4.980407,0.9598774,2.627587
10.50016,78.59301,-4.978442,0.9598774,2.621128
10.54879,75.79574,-4.978442,0.9598774,2.621128
10.60003,126.4009,-4.979097,0.9597127,2.621128
10.64873,133.1398,-4.978442,0.9598774,2.621128
10.69854,127.1638,-4.92933,0.9597127,2.614669
10.74953,103.7684,-2.302166,0.9598774,2.621128
10.79953,100.2083,-1.917783,0.9598774,2.621128
10.85043,98.42819,-1.716751,0.9597127,2.614669
10.8992,99.19109,-1.57007,0.9597127,2.621128
10.94874,101.8612,-1.095321,0.9597127,2.614669
11.0004,90.54498,-0.4994291,0.9598774,2.614669
11.04953,84.82329,-0.3730476,0.9598774,2.614669
11.10028,81.64457,-0.3900731,0.9597127,2.60821
11.14878,80.50024,-0.3848345,0.9598774,2.614669
11.19851,79.73734,-0.3841796,0.9598774,2.60821
11.24968,76.94007,-0.3848345,0.9598774,2.60821
11.29895,74.14281,-0.3861441,0.9598774,2.60821
11.35003,82.02603,-0.412992,0.9597127,2.60821
11.39941,120.4249,-0.4359109,0.9600421,2.60821
11.44888,119.0263,-0.3592962,0.9600421,2.60821
11.50003,103.387,0.3164847,0.9597127,2.60821
11.54866,95.37663,0.7054516,0.9600421,2.601751
11.6005,91.81647,0.8004014,0.9598774,2.601751
11.64849,96.77527,0.8711227,0.9598774,2.601751
11.6995,99.19109,0.9444633,0.9597127,2.601751
11.75032,99.19109,1.075429,0.9598774,2.601751
11.79888,86.22193,1.18413,0.9598774,2.595292
11.84994,82.15317,1.289557,0.9598774,2.595292
11.89852,79.73734,1.337359,0.9598774,2.595292
11.94839,78.72016,1.364862,0.9598774,2.595292
11.99966,77.83012,1.364862,0.9598774,2.595292
12.04911,75.03284,1.365517,0.9598774,2.595292
12.09982,86.85767,1.369446,0.9598774,2.595292
12.14851,125.7652,1.369446,0.9598774,2.595292
12.19843,105.6757,1.361588,0.9600421,2.588832
12.24966,94.61374,1.347836,0.9598774,2.595292
12.29941,90.03638,1.326882,0.9597127,2.588832
12.35053,92.32506,1.283663,0.9598774,2.588832
12.39927,94.48659,1.166449,0.9600421,2.588832
12.44903,98.6825,0.9359505,0.9598774,2.588832
12.49994,85.20473,0.5437095,0.9598774,2.588832
12.54854,82.40748,-0.1779093,0.9598774,2.588832
12.59951,78.97446,-0.4725812,0.9600421,2.588832
12.64938,76.94007,-0.431982,0.9598774,2.582373
12.69868,76.94007,-0.4313271,0.9598774,2.588832
12.74977,75.92289,-0.4018599,0.9597127,2.582373
12.79951,130.0882,-0.397931,0.9598774,2.582373
12.85051,135.047,-0.4201951,0.9598774,2.582373
12.89853,120.4249,-0.4175758,0.9597127,2.582373
12.94853,102.6241,-0.4313271,0.9598774,2.582373
12.99982,96.77527,-0.4660329,0.9598774,2.582373
13.04937,95.37663,-0.4752005,0.9597127,2.582373
13.09944,97.66531,-0.5033581,0.9598774,2.582373
13.14953,103.387,-0.5891403,0.9598774,2.588832
13.19961,89.78209,-0.6212268,0.9598774,2.588832
13.25053,84.569,-0.6559326,0.9598774,2.588832
13.29937,81.77173,-0.7233797,0.9598774,2.588832
13.34973,80.11879,-0.7705272,0.9598774,2.582373
13.39894,77.83012,-1.038351,0.9598774,2.582373
13.44901,77.83012,-1.128062,0.9598774,2.582373
13.49985,115.339,-1.170626,0.9598774,2.582373
13.54905,134.9198,-1.191581,0.9598774,2.582373
13.60052,118.2634,-1.17652,0.9598774,2.582373
13.64923,105.2942,-1.166697,0.9597127,2.575914
13.69876,103.5141,-1.164733,0.9598774,2.575914
13.74961,101.4798,-1.159494,0.9598774,2.575914
13.79954,102.497,-1.15753,0.9600421,2.575914
13.85024,104.5313,-1.155565,0.9597127,2.575914
13.89879,93.08795,-1.154256,0.9597127,2.575914
13.94861,87.87486,-1.153601,0.9598774,2.575914
13.99952,84.82329,-1.149672,0.9598774,2.575914
14.04902,82.66177,-1.129372,0.9598774,2.569455
14.09957,80.37309,-1.169971,0.9598774,2.569455
14.14931,78.21156,-1.323201,0.9598774,2.569455
14.19906,109.4901,-1.380826,0.9598774,2.569455
14.2503,145.8546,-1.371658,0.9597127,2.569455
14.29873,114.8304,-1.365764,0.9597127,2.569455
14.34974,104.5313,-1.367729,0.9598774,2.569455
14.3993,102.8784,-1.357252,0.9598774,2.562996
14.4493,98.9368,-1.339571,0.9598774,2.562996
14.50006,103.387,-1.332368,0.9598774,2.562996
14.54878,106.0571,-1.329094,0.9598774,2.562996
14.59987,91.81647,-1.319927,0.9598774,2.562996
14.64905,88.7649,-1.302246,0.9598774,2.562996
14.69942,86.73053,-1.253134,0.9598774,2.562996
14.75026,82.78893,-1.22956,0.9597127,2.556536
14.79956,80.50024,-1.154256,0.9598774,2.562996
14.85052,79.73734,-1.111692,0.9597127,2.562996
14.8996,78.97446,-1.087463,0.9597127,2.556536
14.94918,124.748,-0.8687512,0.9598774,2.562996
15.0003,139.4972,-0.6290847,0.9598774,2.556536
15.04905,111.6517,-0.4941905,0.9598774,2.556536
15.10038,99.57254,-0.4267433,0.9598774,2.556536
15.14888,96.90242,-0.4084082,0.9598774,2.556536
15.19956,99.44539,-0.409063,0.9598774,2.550077
15.24956,105.5485,-0.4123372,0.9598774,2.556536
15.29886,105.8028,-0.4070986,0.9598774,2.556536
15.35017,96.13953,-0.4267433,0.9598774,2.550077
15.39959,86.85767,-0.4201951,0.9600421,2.550077
15.4493,84.44184,-0.4346013,0.9598774,2.556536
15.50003,83.55181,-0.4568654,0.9598774,2.550077
15.54965,82.91606,-0.4457333,0.9597127,2.550077
15.59961,80.11879,-0.4411495,0.9598774,2.550077
15.64955,86.47623,-0.416921,0.9598774,2.550077
15.69924,112.4145,-0.1379649,0.9598774,2.550077
15.74988,129.4525,0.01068073,0.9597127,2.543618
15.79964,107.0743,0.2195704,0.9598774,2.543618
15.84951,94.10515,0.251002,0.9598774,2.543618
15.89898,92.7065,0.1999256,0.9597127,2.543618
15.9496,100.0811,0.1043209,0.9598774,2.543618
16.00061,103.8956,-0.01878647,0.9598774,2.543618
16.04913,105.4214,-0.1012946,0.9598774,2.543618
16.09974,89.0192,-0.1621935,0.9598774,2.537159
16.14925,84.3147,-0.4437689,0.9597127,2.543618
16.1993,81.64457,-0.4188854,0.9598774,2.537159
16.25034,80.62739,-0.4077534,0.9597127,2.537159
16.29872,80.62739,-0.3874538,0.9598774,2.537159
16.34976,78.97446,-0.3887634,0.9597127,2.537159
16.39964,89.2735,-0.3756669,0.9598774,2.537159
16.44963,135.047,-0.3822151,0.9598774,2.537159
16.49998,131.2325,-0.3854893,0.9597127,2.5307
16.5485,100.5897,-0.3769765,0.9597127,2.537159
16.59973,94.86804,-0.3933472,0.9598774,2.5307
16.6485,97.28386,-0.397931,0.9598774,2.5307
16.69847,103.5141,-0.4025148,0.9600421,2.5307
16.74998,105.1671,-0.4208499,0.9598774,2.524241
16.79854,91.56216,-0.4640684,0.9598774,2.5307
16.84975,87.11198,-0.5190738,0.9598774,2.5307
16.89854,83.80611,-0.5734244,0.9598774,2.524241
16.94872,81.64457,-0.6651001,0.9598774,2.5307
16.99977,81.26313,-0.7122476,0.9598774,2.524241
17.04929,79.48306,-0.9237566,0.9598774,2.524241
17.10012,80.50024,-1.109072,0.9598774,2.524241
17.14862,107.5829,-1.156875,0.9598774,2.524241
17.1985,144.2017,-1.179794,0.9598774,2.517781
17.24984,117.5005,-1.178484,0.9598774,2.517781
17.29954,106.1843,-1.169317,0.9598774,2.517781
17.35054,103.1327,-1.164078,0.9598774,2.524241
17.39871,101.4798,-1.15753,0.9598774,2.517781
17.44946,104.277,-1.154256,0.9600421,2.517781
17.49953,106.82,-1.153601,0.9598774,2.517781
17.5487,94.86804,-1.152291,0.9598774,2.511322
17.60001,89.40065,-1.149017,0.9598774,2.517781
17.64879,87.62056,-1.140504,0.9600421,2.511322
17.69873,86.85767,-1.126098,0.9598774,2.511322
17.75048,82.15317,-1.076331,0.9598774,2.511322
17.79929,82.15317,-1.070438,0.9600421,2.511322
17.85012,77.06723,-1.070438,0.9598774,2.511322
17.89962,95.50377,-1.04228,0.9598774,2.511322
17.94873,142.0402,-0.9754879,0.9598774,2.511322
18.00029,125.8923,-0.7810044,0.9598774,2.504864
18.04901,105.2942,-0.5937241,0.9598774,2.504864
18.10016,102.7513,-0.4706167,0.9597127,2.504864
18.14861,101.0983,-0.4110275,0.9598774,2.504864
18.19954,103.0055,-0.3926924,0.9600421,2.504864
18.25053,105.0399,-0.38287,0.9598774,2.498404
18.29875,96.01237,-0.3782862,0.9597127,2.498404
18.35047,88.5106,-0.3822151,0.9598774,2.504864
18.39862,86.34908,-0.3809055,0.9598774,2.498404
18.44976,84.82329,-0.4057889,0.9598774,2.498404
18.50024,82.66177,-0.4188854,0.9597127,2.498404
18.54859,81.39028,-0.4326368,0.9598774,2.491945
18.59977,78.84731,-0.4326368,0.9598774,2.491945
18.6496,77.06723,-0.4313271,0.9598774,2.491945
18.69953,81.13599,-0.4300175,0.9597127,2.491945
18.75009,99.44539,-0.4326368,0.9598774,2.491945
18.79946,111.0159,-0.07837567,0.9598774,2.491945
18.85061,96.64812,0.2863627,0.9598774,2.491945
18.89877,94.10515,0.6484817,0.9597127,2.491945
18.94924,95.24948,0.783376,0.9597127,2.491945
19.00037,103.0055,0.8128431,0.9598774,2.491945
19.04898,102.497,0.7990918,0.9600421,2.485486
19.10024,97.28386,0.7539088,0.9598774,2.485486
19.1487,84.69615,0.6786037,0.9597127,2.485486
19.1994,83.55181,0.4520338,0.9600421,2.485486
19.2506,79.73734,-0.01092855,0.9597127,2.485486
19.29913,79.86449,-0.4293627,0.9600421,2.485486
19.34972,79.48306,-0.4346013,0.9598774,2.479027
19.39853,76.17719,-0.4182306,0.9598774,2.485486
19.44853,84.0604,-0.4044792,0.9597127,2.479027
19.49979,124.8751,-0.3966213,0.9597127,2.479027
19.54947,120.0435,-0.3881086,0.9598774,2.479027
19.59997,103.7684,-0.3723927,0.9598774,2.479027
19.64853,93.72369,-0.3645349,0.9597127,2.479027
19.69927,92.57936,-0.3389966,0.9598774,2.479027
19.75011,99.95398,-0.378941,0.9597127,2.479027
19.7996,101.3526,-0.4123372,0.9598774,2.472568
19.85071,100.5897,-0.4352561,0.9598774,2.472568
19.89894,84.3147,-0.4706167,0.9598774,2.472568
19.94946,81.13599,-0.5157997,0.9598774,2.472568
20.00027,79.48306,-0.5734244,0.9598774,2.472568
20.04957,77.19438,-0.6624808,0.9598774,2.472568
20.10036,75.92289,-0.7089735,0.9597127,2.472568
20.14869,75.41429,-0.9407821,0.9598774,2.472568
20.19932,77.32152,-1.051448,0.9598774,2.466108
20.25036,140.3873,-1.092702,0.9598774,2.466108
20.29877,139.1158,-1.08157,0.9597127,2.466108
20.3497,112.5417,-1.046864,0.9600421,2.466108
20.39923,102.6241,-1.012158,0.9598774,2.466108
20.44907,101.0983,-1.003645,0.9598774,2.459649
20.49975,100.3354,-1.006265,0.9598774,2.459649
20.54956,101.0983,-1.002991,0.9598774,2.459649
20.59974,101.4798,-1.001026,0.9598774,2.466108
20.64977,99.95398,-0.9925134,0.9598774,2.459649
20.69971,87.49342,-0.9957874,0.9598774,2.459649
20.75,81.51743,-1.0043,0.9598774,2.459649
20.7996,80.11879,-1.016742,0.9598774,2.45319
20.84976,79.3559,-1.035077,0.9598774,2.45319
20.89974,77.70296,-1.089428,0.9598774,2.45319
20.94952,74.52426,-1.32451,0.9598774,2.45319
20.99981,79.73734,-1.502623,0.9598774,2.45319
21.04977,79.73734,-1.530781,0.9598774,2.45319
21.10048,119.1534,-1.509826,0.9598774,2.45319
21.14873,105.8028,-1.487562,0.9598774,2.45319
21.19922,101.8612,-1.463988,0.9598774,2.45319
21.25047,99.06393,-1.447618,0.9598774,2.446731
21.29974,102.3698,-1.423389,0.9598774,2.446731
21.35059,104.4042,-1.392612,0.9597127,2.446731
21.39977,96.77527,-1.346774,0.9598774,2.45319
21.4496,89.65494,-1.291114,0.9598774,2.446731
21.50047,84.95044,-1.209261,0.9598774,2.440272
21.5487,84.95044,-1.064544,0.9598774,2.446731
21.60047,83.04321,-0.8752995,0.9597127,2.446731
21.64922,80.50024,-0.7135573,0.9597127,2.440272
21.69922,80.24594,-0.6926029,0.9598774,2.440272
21.75047,81.00883,-0.6448005,0.9598774,2.440272
21.79931,90.79928,-0.4994291,0.9600421,2.440272
21.85057,121.4421,-0.4208499,0.9598774,2.440272
21.89931,107.4557,-0.3940021,0.9597127,2.440272
21.94939,101.9884,-0.3940021,0.9598774,2.440272
22.0002,99.69969,-0.3795958,0.9598774,2.433812
22.04876,101.7341,-0.38287,0.9598774,2.433812
22.09985,105.0399,-0.3841796,0.9598774,2.433812
22.14972,99.82683,-0.4031696,0.9598774,2.433812
22.1986,93.72369,-0.416921,0.9598774,2.433812
22.25076,89.90925,-0.428053,0.9598774,2.433812
22.29951,86.22193,-0.2990522,0.9598774,2.433812
22.35059,85.20473,0.02836104,0.9598774,2.433812
22.39873,84.3147,0.1815904,0.9598774,2.427353
22.44888,81.51743,0.1861742,0.9598774,2.433812
22.50002,81.64457,0.2346314,0.9598774,2.427353
22.54859,120.4249,0.2634438,0.9598774,2.427353
22.60047,127.4181,0.1586715,0.9598774,2.420894
22.64888,106.5657,0.08860508,0.9597127,2.420894
22.69888,98.80965,-0.02140577,0.9597127,2.420894
22.7496,93.978,-0.09998495,0.9598774,2.427353
22.7987,101.6069,-0.367809,0.9598774,2.420894
22.85068,104.4042,-0.4247788,0.9597127,2.420894
22.89936,97.28386,-0.4070986,0.9597127,2.420894
22.94936,89.0192,-0.4044792,0.9597127,2.414435
23.00004,86.34908,-0.3946568,0.9598774,2.420894
23.04937,84.569,-0.3881086,0.9598774,2.414435
23.10058,82.53461,-0.3763217,0.9600421,2.414435
23.14888,81.13599,-0.3579866,0.9598774,2.414435
23.1993,80.75454,-0.3494738,0.9598774,2.420894
23.2498,132.3769,-0.3730476,0.9598774,2.414435
23.29935,132.504,-0.3926924,0.9597127,2.414435
23.35001,113.3046,-0.3907279,0.9597127,2.414435
23.39945,101.2255,-0.4156113,0.9600421,2.407976
23.44953,98.9368,-0.4476978,0.9598774,2.407976
23.50051,98.30104,-0.4660329,0.9598774,2.407976
23.54907,102.6241,-0.4837133,0.9598774,2.407976
23.59984,104.277,-0.5171093,0.9598774,2.407976
23.64931,93.72369,-0.5708051,0.9598774,2.407976
23.69895,89.65494,-0.6199172,0.9597127,2.407976
23.75045,85.96764,-0.6729581,0.9598774,2.401517
23.79868,85.20473,-0.7417148,0.9598774,2.407976
23.85051,83.55181,-0.763979,0.9598774,2.401517
23.89871,79.86449,-0.9735234,0.9598774,2.401517
23.9495,85.45904,-1.15491,0.9598774,2.407976
24.00059,131.7411,-1.197474,0.9597127,2.401517
24.04971,131.8683,-1.226286,0.9598774,2.401517
24.10055,111.6517,-1.23218,0.9598774,2.401517
24.14909,107.5829,-1.221048,0.9598774,2.401517
24.19909,106.0571,-1.212535,0.9600421,2.395057
24.24984,105.5485,-1.208606,0.9598774,2.395057
24.29947,105.5485,-1.204022,0.9598774,2.395057
24.34983,106.6929,-1.204022,0.9598774,2.395057
24.39973,96.26666,-1.197474,0.9598774,2.395057
24.44867,90.54498,-1.200093,0.9598774,2.388598
24.49983,89.14634,-1.193545,0.9598774,2.395057
24.54883,87.36626,-1.190926,0.9597127,2.395057
24.59983,86.09478,-1.185032,0.9598774,2.395057
24.64898,83.93326,-1.223667,0.9598774,2.388598
24.69886,82.66177,-1.329749,0.9597127,2.388598
24.74974,114.5761,-1.313378,0.9598774,2.388598
24.7997,126.7823,-1.302901,0.9598774,2.388598
24.84976,115.339,-1.272779,0.9597127,2.388598
24.8997,109.6173,-1.247896,0.9597127,2.388598
24.94914,108.6001,-1.204677,0.9598774,2.388598
25.00033,105.6757,-1.136575,0.9598774,2.388598
25.04874,106.6929,-0.997752,0.9597127,2.382139
25.09983,108.4729,-0.7927913,0.9597127,2.382139
25.14919,96.64812,-0.6559326,0.9597127,2.382139
25.1987,92.19792,-0.5013936,0.9598774,2.37568
25.25,89.2735,-0.4313271,0.9597127,2.382139
25.2997,89.0192,-0.3972761,0.9598774,2.37568
25.34974,87.11198,-0.4123372,0.9598774,2.382139
25.39907,84.69615,-0.3854893,0.9598774,2.382139
25.44974,81.77173,-0.3743572,0.9598774,2.37568
25.50017,85.58618,-0.3907279,0.9598774,2.37568
25.54899,132.2497,-0.3907279,0.9597127,2.37568
25.5997,143.566,-0.3985858,0.9598774,2.37568
25.64949,111.1431,-0.4201951,0.9597127,2.369221
25.69941,104.277,-0.4228144,0.9598774,2.369221
25.75,101.8612,-0.4260885,0.9598774,2.369221
25.79946,104.4042,-0.4116823,0.9598774,2.369221
25.85042,106.6929,-0.3867989,0.9598774,2.369221
25.89907,101.6069,-0.3959665,0.9598774,2.369221
25.94895,92.7065,-0.4143017,0.9598774,2.369221
26.00003,89.5278,-0.4208499,0.9598774,2.362762
26.04943,87.74771,-0.4182306,0.9598774,2.369221
26.10032,87.11198,-0.4103727,0.9598774,2.369221
26.14894,85.20473,-0.4031696,0.9598774,2.362762
26.19882,81.89888,-0.3769765,0.9598774,2.369221
26.2502,83.67896,-0.3553673,0.9598774,2.362762
26.29878,121.0607,-0.3501287,0.9598774,2.362762
26.34974,139.7515,-0.3403063,0.9598774,2.362762
26.39969,109.4901,-0.3416159,0.9598774,2.362762
26.4488,101.7341,-0.3481642,0.9598774,2.362762
26.49997,97.9196,-0.3520931,0.9598774,2.356302
26.5487,99.44539,-0.3619155,0.9598774,2.356302
26.60069,103.0055,-0.3691186,0.9597127,2.356302
26.64903,104.4042,-0.3900731,0.9598774,2.356302
26.69969,91.43503,-0.4136468,0.9597127,2.356302
26.74965,86.73053,-0.4339464,0.9598774,2.356302
26.79957,85.96764,-0.4752005,0.9598774,2.349844
26.85028,82.78893,-0.5059774,0.9598774,2.356302
26.89869,81.51743,-0.575389,0.9597127,2.349844
26.94982,80.11879,-0.6218816,0.9598774,2.356302
26.99981,77.32152,-0.805233,0.9598774,2.356302
27.04981,87.49342,-0.9388176,0.9598774,2.349844
27.10068,140.3873,-0.9728685,0.9598774,2.349844
27.14907,139.6244,-1.050793,0.9598774,2.349844
27.19886,115.0847,-1.049483,0.9598774,2.343384
27.25,104.4042,-1.046864,0.9597127,2.349844
27.29894,104.277,-1.049483,0.9597127,2.343384
27.34969,103.387,-1.047519,0.9598774,2.343384
27.39957,102.8784,-1.044245,0.9598774,2.343384
27.44942,104.1499,-1.040316,0.9598774,2.343384
27.50032,90.92643,-1.02329,0.9598774,2.343384
27.54911,88.63776,-0.9833458,0.9597127,2.343384
27.60034,84.569,-0.925721,0.9598774,2.343384
27.64882,83.80611,-0.8622029,0.9598774,2.336925
27.69892,82.02603,-0.7659434,0.9598774,2.336925
27.74994,79.73734,-0.6061658,0.9598774,2.336925
27.79953,74.90571,-0.5891403,0.9600421,2.336925
27.85081,75.28716,-0.5596731,0.9598774,2.336925
27.89906,79.3559,-0.4679974,0.9597127,2.330466
27.94885,135.047,-0.3848345,0.9597127,2.336925
28.00023,111.5245,-0.38287,0.9597127,2.336925
28.04881,102.7513,-0.3776314,0.9598774,2.330466
28.10057,101.3526,-0.3717379,0.9597127,2.336925
28.14898,100.5897,-0.3697734,0.9598774,2.330466
28.19881,100.9712,-0.3769765,0.9600421,2.330466
28.24993,102.6241,-0.3940021,0.9600421,2.330466
28.2993,90.03638,-0.3966213,0.9598774,2.330466
28.35022,85.20473,-0.412992,0.9598774,2.330466
28.39893,83.93326,-0.4182306,0.9598774,2.324007
28.44869,82.15317,-0.3926924,0.9598774,2.324007
28.50079,80.50024,-0.4018599,0.9597127,2.324007
28.54941,79.10161,-0.4084082,0.9597127,2.324007
28.60055,75.03284,-0.4038244,0.9598774,2.324007
28.6491,89.65494,-0.4018599,0.9598774,2.324007
28.69866,101.0983,-0.3959665,0.9598774,2.324007
28.75034,121.8235,-0.3841796,0.9598774,2.324007
28.7987,105.6757,-0.3691186,0.9598774,2.317548
28.85009,95.75809,-0.3664993,0.9598774,2.317548
28.89923,92.57936,-0.3560221,0.9598774,2.317548
28.94865,94.48659,-0.3494738,0.9598774,2.317548
29.00043,99.44539,-0.3475093,0.9598774,2.317548
29.04941,100.9712,-0.333758,0.9598774,2.317548
29.09976,86.34908,-0.3311387,0.9598774,2.317548
29.1494,81.39028,-0.3461997,0.9598774,2.317548
29.1987,78.33871,-0.3619155,0.9597127,2.317548
29.25051,77.06723,-0.3802507,0.9598774,2.311089
29.29868,76.55863,-0.3953117,0.9598774,2.311089
29.34997,76.17719,-0.4869874,0.9598774,2.311089
29.39964,76.68578,-0.5721148,0.9598774,2.311089
29.44966,129.8339,-0.6074755,0.9598774,2.311089
29.50069,138.2257,-0.6192623,0.9598774,2.311089
29.54947,111.0159,-0.6114044,0.9598774,2.311089
29.60035,100.9712,-0.6048561,0.9600421,2.311089
29.64897,99.82683,-0.6048561,0.9597127,2.304629
29.69964,99.44539,-0.6028916,0.9598774,2.311089
29.75067,100.3354,-0.6028916,0.9598774,2.304629
29.79871,101.9884,-0.6068206,0.9598774,2.304629
29.8507,89.0192,-0.6107495,0.9598774,2.304629
29.89917,84.569,-0.6179526,0.9600421,2.304629
29.94917,82.91606,-0.6284298,0.9598774,2.304629
29.99947,81.00883,-0.6303943,0.9598774,2.29817
30.05068,79.73734,-0.6310492,0.9598774,2.304629
30.09904,77.44867,-0.7292731,0.9598774,2.29817
30.14997,76.94007,-0.9119697,0.9598774,2.29817
30.19869,118.0091,-0.9191728,0.9598774,2.29817
30.24869,140.7687,-0.9086956,0.9598774,2.29817
30.30091,113.8132,-0.8962539,0.9598774,2.29817
30.34943,102.2427,-0.8739898,0.9598774,2.29817
30.39928,101.4798,-0.843213,0.9598774,2.29817
30.44876,99.19109,-0.8248778,0.9597127,2.291711
30.49915,99.82683,-0.824223,0.9597127,2.291711
30.54971,103.6413,-0.8209488,0.9598774,2.291711
30.59963,91.68932,-0.8157102,0.9597127,2.291711
30.64968,86.73053,-0.786243,0.9598774,2.291711
30.69942,85.20473,-0.7705272,0.9598774,2.291711
30.74917,81.51743,-0.7430245,0.9597127,2.291711
30.80002,80.11879,-0.7443341,0.9598774,2.291711
30.84953,77.70296,-0.7554662,0.9598774,2.285252
30.89928,106.0571,-0.7580855,0.9598774,2.291711
30.94871,141.023,-0.7541566,0.9598774,2.285252
30.99981,108.8544,-0.744989,0.9598774,2.285252
31.05067,100.9712,-0.7377859,0.9597127,2.285252
31.09956,99.06393,-0.7377859,0.9597127,2.285252
31.14909,98.04675,-0.7318925,0.9598774,2.285252
31.19892,101.0983,-0.7246894,0.9598774,2.285252
31.24882,103.387,-0.7279634,0.9598774,2.278793
31.30014,89.90925,-0.7266538,0.9598774,2.278793
31.34903,87.36626,-0.7148669,0.9597127,2.285252
31.39975,84.18755,-0.7161766,0.9600421,2.278793
31.44951,81.77173,-0.76005,0.9598774,2.278793
31.49936,81.26313,-0.869406,0.9597127,2.278793
31.55046,95.50377,-0.9964424,0.9598774,2.278793
31.5989,133.0126,-1.035077,0.9598774,2.278793
31.64909,125.1294,-1.047519,0.9597127,2.272334
31.69875,114.8304,-1.053412,0.9598774,2.278793
31.74893,99.31824,-1.055377,0.9597127,2.278793
31.80001,97.41101,-1.044245,0.9598774,2.272334
31.84884,102.3698,-1.019361,0.9598774,2.272334
31.89968,105.2942,-0.9597721,0.9598774,2.272334
31.94967,103.8956,-0.8667867,0.9597127,2.265874
31.9999,87.36626,-0.7397504,0.9598774,2.265874
32.04993,84.569,-0.5858661,0.9597127,2.272334
32.0999,83.67896,-0.4300175,0.9598774,2.272334
32.14927,79.22876,-0.4149565,0.9598774,2.272334
32.19956,92.96081,-0.3664993,0.9600421,2.272334
32.24941,128.9439,-0.3756669,0.9597127,2.265874
32.30039,121.6964,-0.3684638,0.9598774,2.272334
32.34945,109.9987,-0.3684638,0.9598774,2.265874
32.39929,102.497,-0.3848345,0.9598774,2.265874
32.44893,96.52097,-0.3874538,0.9597127,2.265874
32.49891,100.9712,-0.3972761,0.9597127,2.265874
32.54979,105.6757,-0.4116823,0.9597127,2.259415
32.59965,105.6757,-0.1595742,0.9598774,2.265874
32.64967,93.2151,0.02443208,0.9598774,2.259415
32.69963,89.78209,0.07485372,0.9598774,2.259415
32.74875,87.62056,0.02312243,0.9597127,2.259415
32.80079,84.95044,-0.145168,0.9598774,2.259415
32.84945,83.04321,-0.4287078,0.9598774,2.259415
32.89925,111.0159,-0.4051341,0.9597127,2.259415
32.94993,141.6587,-0.3953117,0.9597127,2.259415
32.99987,117.6276,-0.3926924,0.9598774,2.252956
33.04993,100.9712,-0.3887634,0.9598774,2.252956
33.09968,94.86804,-0.3737024,0.9598774,2.252956
33.14964,98.04675,-0.3632252,0.9597127,2.259415
33.19955,106.1843,-0.3481642,0.9597127,2.252956
33.2492,103.1327,-0.3370321,0.9597127,2.252956
33.30015,98.30104,-0.3324483,0.9598774,2.252956
33.34988,86.85767,-0.34489,0.9597127,2.252956
33.3994,86.09478,-0.38287,0.9598774,2.246497
33.44945,84.569,-0.4018599,0.9597127,2.246497
33.49924,82.53461,-0.5197287,0.9598774,2.246497
33.5502,91.81647,-0.6205719,0.9597127,2.246497
33.59994,132.504,-0.6598615,0.9598774,2.246497
33.64993,134.9198,-0.6991512,0.9597127,2.252956
33.69972,114.7032,-0.6998059,0.9598774,2.246497
33.74975,105.6757,-0.7004608,0.9597127,2.240038
33.80053,103.5141,-0.7155218,0.9597127,2.246497
33.84989,102.497,-0.7142121,0.9598774,2.246497
33.89992,106.6929,-0.7227249,0.9598774,2.246497
33.94899,107.2015,-0.7535017,0.9597127,2.240038
33.99984,93.34225,-0.8255326,0.9597127,2.240038
34.0504,89.65494,-0.8517257,0.9598774,2.240038
34.09939,85.96764,-0.8864315,0.9598774,2.240038
34.1491,84.95044,-0.925721,0.9598774,2.240038
34.1999,83.29751,-1.140504,0.9597127,2.240038
34.24976,87.11198,-1.350049,0.9597127,2.233578
34.30027,122.205,-1.386064,0.9598774,2.233578
34.34889,144.7103,-1.40178,0.9597127,2.233578
34.3994,121.4421,-1.374277,0.9597127,2.233578
34.44927,109.363,-1.348084,0.9598774,2.233578
34.49976,106.3114,-1.339571,0.9598774,2.233578
34.55062,104.4042,-1.321891,0.9598774,2.233578
34.59889,106.0571,-1.313378,0.9598774,2.227119
34.6489,107.3286,-1.265576,0.9598774,2.233578
34.69937,107.0743,-1.219738,0.9597127,2.227119
34.74978,92.7065,-1.128717,0.9597127,2.227119
34.80076,89.14634,-0.8687512,0.9597127,2.227119
34.84904,86.73053,-0.7214152,0.9597127,2.227119
34.89886,84.82329,-0.5020484,0.9597127,2.227119
34.94911,83.42466,-0.4516267,0.9597127,2.227119
34.99879,81.00883,-0.4359109,0.9600421,2.227119
35.04976,120.8064,-0.3822151,0.9598774,2.227119
35.09902,147.2533,-0.3730476,0.9598774,2.227119
35.14919,119.7892,-0.3848345,0.9597127,2.227119
35.19915,105.4214,-0.3822151,0.9597127,2.227119
35.24973,104.277,-0.3874538,0.9600421,2.227119
35.30067,102.6241,-0.3913827,0.9598774,2.227119
35.34923,106.5657,-0.3946568,0.9598774,2.227119
35.39913,107.4557,-0.4057889,0.9598774,2.22066
35.44902,94.86804,-0.2276761,0.9597127,2.22066
35.49986,89.14634,0.02836104,0.9600421,2.22066
35.55052,87.23911,0.3996476,0.9598774,2.22066
35.59987,85.84048,0.6366948,0.9598774,2.214201
35.64966,85.07759,0.6032987,0.9598774,2.214201
35.69954,84.18755,0.3033881,0.9598774,2.22066
35.74935,82.28033,-0.1995186,0.9598774,2.214201
35.80038,87.62056,-0.4411495,0.9597127,2.22066
35.84902,123.6036,-0.4031696,0.9598774,2.214201
35.89938,117.3734,-0.3998955,0.9598774,2.214201
35.94902,103.1327,-0.3933472,0.9597127,2.214201
35.99902,97.53816,-0.3881086,0.9598774,2.214201
36.05027,97.41101,-0.3710831,0.9597127,2.214201
36.09885,104.1499,-0.3592962,0.9598774,2.214201
36.14988,105.2942,-0.3527479,0.9598774,2.207742
36.19886,99.82683,-0.34489,0.9598774,2.207742
36.24889,87.36626,-0.3547124,0.9598774,2.207742
36.30018,85.58618,-0.3664993,0.9597127,2.214201
36.34891,83.55181,-0.3841796,0.9597127,2.207742
36.39935,81.89888,-0.4293627,0.9597127,2.207742
36.449,80.24594,-0.4837133,0.9597127,2.207742
36.4996,79.73734,-0.5871758,0.9597127,2.207742
36.55086,77.19438,-0.74106,0.9598774,2.207742
36.59975,90.54498,-0.8071975,0.9597127,2.207742
36.64968,143.9474,-0.8549998,0.9597127,2.201283
36.69915,146.7447,-0.8739898,0.9598774,2.201283
36.74993,107.71,-0.8615481,0.9598774,2.194824
36.80063,104.6585,-0.8739898,0.9598774,2.201283
36.84943,103.1327,-0.8772639,0.9598774,2.207742
36.89926,103.0055,-0.8864315,0.9598774,2.201283
36.9493,104.7856,-0.9152438,0.9597127,2.201283
36.99915,96.26666,-0.9368532,0.9597127,2.201283
37.0505,88.5106,-0.9813814,0.9597127,2.194824
37.09964,85.96764,-1.026564,0.9597127,2.201283
37.14943,83.93326,-1.017397,0.9597127,2.194824
37.19912,82.02603,-1.031803,0.9598774,2.194824
37.24995,80.75454,-1.068473,0.9598774,2.194824
37.29987,78.97446,-1.110382,0.9597127,2.194824
37.3488,74.77856,-1.297662,0.9598774,2.194824
37.39964,86.73053,-1.486253,0.9598774,2.194824
37.44985,140.0058,-1.57138,0.9597127,2.188364
37.49926,137.7171,-1.617873,0.9597127,2.188364
37.5505,108.6001,-1.548461,0.9597127,2.194824
37.59998,104.6585,-1.481014,0.9597127,2.194824
37.64951,102.3698,-1.424044,0.9597127,2.188364
37.69885,100.7169,-1.367729,0.9597127,2.188364
37.74949,101.9884,-1.314688,0.9597127,2.188364
37.80071,103.7684,-1.262957,0.9598774,2.188364
37.84965,88.89205,-1.193545,0.9598774,2.188364
37.89962,85.71333,-1.034422,0.9598774,2.188364
37.94979,82.66177,-0.7993395,0.9597127,2.188364
37.99983,81.39028,-0.654623,0.9598774,2.181905
38.051,77.57583,-0.4778198,0.9600421,2.181905
38.0998,77.06723,-0.3913827,0.9597127,2.181905
38.14959,76.81293,-0.3717379,0.9598774,2.181905
38.19922,72.48988,-0.3717379,0.9598774,2.181905
38.2498,97.28386,-0.3985858,0.9598774,2.181905
38.30061,141.6587,-0.3854893,0.9597127,2.175446
38.34942,114.4489,-0.3887634,0.9598774,2.175446
38.39934,99.31824,-0.3874538,0.9598774,2.181905
38.44901,96.26666,-0.3966213,0.9598774,2.175446
38.49984,93.72369,-0.3946568,0.9597127,2.175446
38.55042,95.88522,-0.3900731,0.9597127,2.175446
38.59921,100.844,-0.4044792,0.9597127,2.175446
38.64975,100.844,-0.3985858,0.9597127,2.168987
38.6995,87.87486,-0.3586414,0.9597127,2.175446
38.74895,80.24594,-0.3586414,0.9597127,2.175446
38.80008,78.33871,-0.3867989,0.9598774,2.175446
38.84935,78.08442,-0.4044792,0.9598774,2.175446
38.89901,76.55863,-0.3972761,0.9598774,2.168987
38.94925,75.41429,-0.3940021,0.9597127,2.175446
38.99899,78.21156,-0.3782862,0.9598774,2.168987
39.05025,87.36626,-0.3658445,0.9597127,2.168987
39.09892,123.8579,-0.359951,0.9597127,2.168987
39.1496,105.4214,-0.3481642,0.9597127,2.168987
39.19925,95.50377,-0.3422708,0.9598774,2.168987
39.25,88.89205,-0.3370321,0.9597127,2.162528
39.30058,89.14634,-0.3442352,0.9598774,2.168987
39.34925,96.64812,-0.3566769,0.9598774,2.162528
39.40001,99.31824,-0.3697734,0.9598774,2.162528
39.44939,85.71333,-0.3913827,0.9597127,2.162528
39.49909,80.11879,-0.4097179,0.9597127,2.162528
39.54988,78.08442,-0.4424592,0.9598774,2.162528
39.59892,76.30434,-0.4719263,0.9597127,2.162528
39.64974,74.90571,-0.5171093,0.9597127,2.156069
39.69909,73.76136,-0.6022368,0.9597127,2.162528
39.74964,72.10844,-0.7875527,0.9597127,2.156069
39.80064,83.80611,-0.8982184,0.9597127,2.162528
39.84985,140.6415,-0.9584624,0.9597127,2.162528
39.89991,128.8167,-1.001681,0.9598774,2.162528
39.94975,106.5657,-1.008229,0.9598774,2.162528
39.99911,99.06393,-1.001026,0.9598774,2.156069
40.04988,96.64812,-0.9957874,0.9597127,2.156069
40.09987,97.15671,-0.9925134,0.9600421,2.156069
40.14991,98.55534,-0.9912037,0.9598774,2.156069
40.19958,101.2255,-0.9997164,0.9597127,2.156069
40.24972,86.85767,-1.010849,0.9598774,2.156069
40.30062,83.17036,-1.008229,0.9598774,2.156069
40.34911,81.77173,-0.9970971,0.9597127,2.156069
40.39991,79.99165,-1.0043,0.9598774,2.156069
40.44925,78.84731,-1.006265,0.9598774,2.149609
40.49913,76.30434,-1.118895,0.9597127,2.156069
40.55038,74.39711,-1.298972,0.9597127,2.156069
40.59911,119.0263,-1.287185,0.9598774,2.149609
40.64935,141.6587,-1.276053,0.9597127,2.149609
40.69887,136.5728,-1.227596,0.9597127,2.149609
40.74986,102.3698,-1.113656,0.9597127,2.149609
40.7999,99.31824,-0.944711,0.9597127,2.149609
40.84966,98.04675,-0.7253442,0.9597127,2.149609
40.89938,101.0983,-0.5531248,0.9597127,2.149609
40.94891,103.0055,-0.4306723,0.9597127,2.14315
40.99914,101.4798,-0.3691186,0.9598774,2.14315
41.04984,86.34908,-0.3809055,0.9598774,2.14315
41.09983,84.69615,-0.3894182,0.9598774,2.14315
41.14961,81.26313,-0.378941,0.9597127,2.149609
41.19917,80.75454,-0.3854893,0.9598774,2.14315
41.24985,79.73734,-0.378941,0.9598774,2.14315
41.30091,76.94007,-0.3756669,0.9597127,2.14315
41.34936,79.10161,-0.3815603,0.9597127,2.136691
41.39936,125.1294,-0.4005503,0.9598774,2.14315
41.44983,137.7171,-0.4012051,0.9598774,2.14315
41.49998,110.6345,-0.3835248,0.9597127,2.136691
41.55087,100.3354,-0.05218261,0.9597127,2.136691
41.59961,97.53816,0.2955302,0.9598774,2.136691
41.64982,98.30104,0.5941311,0.9597127,2.136691
41.6989,103.2598,0.5397805,0.9597127,2.136691
41.74936,104.5313,0.3145202,0.9597127,2.136691
41.80036,91.94361,0.09253403,0.9598774,2.136691
41.84986,88.38345,-0.08623359,0.9597127,2.130232
41.8992,85.96764,-0.3802507,0.9597127,2.136691
41.94915,84.44184,-0.4136468,0.9598774,2.130232
41.9989,82.91606,-0.3940021,0.9598774,2.130232
42.05061,80.88168,-0.3704283,0.9597127,2.136691
42.09986,85.84048,-0.3573318,0.9598774,2.130232
42.14923,121.8235,-0.3514383,0.9598774,2.130232
42.19898,117.8819,-0.3579866,0.9598774,2.130232
42.24958,104.4042,-0.3586414,0.9597127,2.123773
42.3009,99.06393,-0.3723927,0.9597127,2.130232
42.34933,97.28386,-0.3887634,0.9597127,2.123773
42.39933,101.4798,-0.4044792,0.9598774,2.130232
42.44885,104.0227,-0.4332916,0.9597127,2.123773
42.49965,100.2083,-0.4686522,0.9597127,2.123773
42.55031,89.5278,-0.4994291,0.9598774,2.130232
42.59998,85.33189,-0.5491958,0.9597127,2.123773
42.64923,84.18755,-0.5819372,0.9597127,2.123773
42.69985,83.42466,-0.642836,0.9597127,2.123773
42.75021,82.91606,-0.7070091,0.9597127,2.117313
42.80089,79.48306,-0.9014925,0.9597127,2.123773
42.84962,85.96764,-1.056686,0.9598774,2.123773
42.89928,134.5384,-1.06389,0.9598774,2.123773
42.94915,128.4353,-1.103179,0.9598774,2.117313
43.00014,112.1602,-1.084844,0.9598774,2.123773
43.05088,109.4901,-1.076986,0.9597127,2.123773
43.09915,107.5829,-1.076986,0.9597127,2.117313
43.14997,106.82,-1.072402,0.9597127,2.117313
43.19965,107.5829,-1.068473,0.9598774,2.117313
43.25072,108.0915,-1.069783,0.9597127,2.110854
43.30014,95.37663,-1.082225,0.9597127,2.117313
43.34998,92.19792,-1.076986,0.9597127,2.117313
43.39932,89.90925,-1.075676,0.9598774,2.117313
43.44926,88.25631,-1.067164,0.9597127,2.117313
43.5,86.73053,-1.074367,0.9597127,2.110854
43.55097,83.29751,-1.198129,0.9597127,2.110854
43.59908,98.30104,-1.302901,0.9598774,2.110854
43.64997,123.2222,-1.334333,0.9597127,2.110854
43.69921,141.2773,-1.347429,0.9597127,2.110854
43.75014,116.229,-1.321891,0.9597127,2.110854
43.80014,111.7788,-1.309449,0.9598774,2.104395
43.84946,110.3802,-1.299627,0.9598774,2.110854
43.89972,108.4729,-1.270815,0.9598774,2.104395
43.94972,108.3458,-1.238728,0.9597127,2.104395
44.0001,108.4729,-1.235454,0.9598774,2.104395
44.05033,97.9196,-1.177174,0.9597127,2.104395
44.09972,95.24948,-1.150326,0.9597127,2.104395
44.14934,91.81647,-0.9925134,0.9597127,2.104395
44.19936,90.67213,-0.7973751,0.9597127,2.104395
44.24989,88.7649,-0.6762322,0.9598774,2.104395
44.30002,85.96764,-0.4987742,0.9597127,2.104395
44.34888,82.78893,-0.4706167,0.9597127,2.104395
44.40009,84.0604,-0.4391851,0.9597127,2.104395
44.44961,130.724,-0.3861441,0.9598774,2.104395
44.50058,138.0986,-0.3861441,0.9597127,2.097936
44.55086,118.1362,-0.397931,0.9597127,2.097936
44.59988,111.3974,-0.3959665,0.9598774,2.097936
44.64921,110.3802,-0.4005503,0.9598774,2.097936
44.69986,108.3458,-0.3920376,0.9597127,2.097936
44.75062,107.71,-0.4044792,0.9597127,2.097936
44.80088,108.3458,-0.4188854,0.9597127,2.091477
44.84984,98.30104,-0.416921,0.9597127,2.091477
44.89933,94.99519,-0.1700514,0.9597127,2.097936
44.94989,91.94361,0.02705139,0.9597127,2.097936
45.00001,90.67213,0.2005804,0.9598774,2.091477
45.05088,89.14634,0.1619456,0.9597127,2.091477
45.09913,87.23911,0.03229,0.9597127,2.091477
45.14988,85.33189,-0.1504066,0.9597127,2.091477
45.19962,80.88168,-0.4437689,0.9597127,2.097936
45.25088,87.62056,-0.3966213,0.9598774,2.091477
45.30069,121.1878,-0.3809055,0.9597127,2.091477
45.34913,120.0435,-0.3592962,0.9598774,2.091477
45.39988,108.3458,-0.3553673,0.9597127,2.091477
45.44961,102.6241,-0.3527479,0.9598774,2.091477
45.50083,101.4798,-0.359951,0.9597127,2.091477
45.55037,103.5141,-0.3658445,0.9597127,2.091477
45.59925,104.7856,-0.3658445,0.9598774,2.085018
45.65013,104.4042,-0.3940021,0.9598774,2.085018
45.6998,91.56216,-0.416921,0.9597127,2.085018
45.75089,88.5106,-0.4575202,0.9598774,2.085018
45.80101,88.38345,-0.5046677,0.9598774,2.085018
45.8496,84.95044,-0.5426476,0.9598774,2.085018
45.89975,84.0604,-0.612714,0.9598774,2.085018
45.9494,83.29751,-0.6520036,0.9597127,2.078558
46.00046,78.72016,-0.8229133,0.9597127,2.078558
46.05031,76.94007,-1.031803,0.9597127,2.078558
46.09997,81.64457,-1.086154,0.9597127,2.085018
46.15009,139.8786,-1.114966,0.9597127,2.078558
46.20008,119.4077,-1.126753,0.9597127,2.078558
46.25109,110.3802,-1.11693,0.9598774,2.078558
46.30096,108.8544,-1.113001,0.9597127,2.078558
46.34982,107.3286,-1.110382,0.9597127,2.078558
46.39954,106.3114,-1.107108,0.9597127,2.072099
46.44941,105.93,-1.101869,0.9598774,2.072099
46.50025,96.52097,-1.101869,0.9597127,2.072099
46.55096,92.32506,-1.103834,0.9597127,2.078558
46.59996,88.38345,-1.09794,0.9598774,2.078558
46.64933,86.73053,-1.094666,0.9597127,2.072099
46.6992,85.96764,-1.09794,0.9699246,2.078558
46.75066,83.80611,-1.096631,0.9695953,2.072099
46.80008,80.24594,-1.095976,0.9697599,2.072099
46.84973,77.83012,-1.135265,0.9697599,2.072099
46.89972,76.94007,-1.247241,0.9697599,2.072099
46.949,110.253,-1.275398,0.9697599,2.06564
46.99995,140.0058,-1.273434,0.9699246,2.072099
47.05033,113.8132,-1.253134,0.9697599,2.06564
47.10007,108.2186,-1.1942,0.9697599,2.072099
47.14916,107.2015,-1.153601,0.9695953,2.06564
47.19905,105.6757,-1.101869,0.9697599,2.072099
47.25073,104.6585,-1.002991,0.9697599,2.06564
47.30037,104.277,-0.8419033,0.9697599,2.06564
47.34959,93.34225,-0.7456438,0.9697599,2.06564
47.39896,88.5106,-0.6068206,0.9697599,2.06564
47.44946,86.98483,-0.4778198,0.9697599,2.06564
47.5007,83.93326,-0.3841796,0.9697599,2.06564
47.55018,82.66177,-0.3874538,0.9695953,2.059181
47.59987,81.64457,-0.3972761,0.9697599,2.06564
47.64937,78.84731,-0.397931,0.9697599,2.06564
47.69968,76.94007,-0.3795958,0.9697599,2.06564
47.75011,72.74417,-0.3802507,0.9697599,2.06564
47.80011,84.82329,-0.3874538,0.9697599,2.06564
47.84958,137.0814,-0.4051341,0.9697599,2.06564
47.8996,131.2325,-0.4123372,0.9697599,2.059181
47.94995,100.9712,-0.4149565,0.9697599,2.06564
48.00007,98.9368,-0.4306723,0.9697599,2.059181
48.05104,98.6825,-0.4306723,0.9697599,2.059181
48.09937,99.19109,-0.4221596,0.9697599,2.059181
48.1499,99.95398,-0.4247788,0.9695953,2.059181
48.19982,100.9712,-0.4221596,0.9697599,2.059181
48.25082,86.98483,-0.4136468,0.9697599,2.059181
48.30042,84.3147,-0.4084082,0.9695953,2.052722
48.34954,81.39028,-0.4064437,0.9697599,2.052722
48.39937,79.22876,-0.3953117,0.9699246,2.052722
48.44908,79.22876,-0.3776314,0.9697599,2.052722
48.50011,77.32152,-0.3625704,0.9697599,2.052722
48.55054,73.12562,-0.3619155,0.9697599,2.052722
48.59984,77.32152,-0.3619155,0.9697599,2.052722
48.64958,77.19438,-0.3619155,0.9697599,2.052722
48.69961,126.9095,-0.3566769,0.9699246,2.052722
48.75057,107.2015,-0.3553673,0.9697599,2.046263
48.80032,98.9368,-0.3560221,0.9697599,2.046263
48.85017,93.34225,-0.3743572,0.9697599,2.052722
48.89978,93.59654,-0.3782862,0.9697599,2.052722
48.94983,98.1739,-0.3815603,0.9697599,2.046263
49.00011,99.06393,-0.3959665,0.9697599,2.046263
49.05104,86.60338,-0.4359109,0.9697599,2.046263
49.09982,81.51743,-0.4634137,0.9697599,2.052722
49.14928,78.97446,-0.5118707,0.9695953,2.046263
49.19936,78.08442,-0.5197287,0.9699246,2.046263
49.25062,75.28716,-0.5478862,0.9697599,2.046263
49.30061,74.90571,-0.5708051,0.9697599,2.046263
49.34928,73.12562,-0.7325473,0.9697599,2.046263
49.39899,69.94691,-0.9093504,0.9697599,2.046263
49.44981,112.0331,-1.023945,0.9697599,2.046263
49.50111,136.3185,-1.052757,0.9697599,2.039804
49.55093,120.4249,-1.106453,0.9697599,2.039804
49.59963,104.7856,-1.095976,0.9699246,2.039804
49.64968,99.82683,-1.089428,0.9697599,2.046263
49.6996,99.95398,-1.086154,0.9697599,2.039804
49.7503,97.9196,-1.080915,0.9697599,2.039804
49.80119,98.80965,-1.078296,0.9697599,2.033344
49.84994,91.30788,-1.076331,0.9699246,2.039804
49.89919,85.20473,-1.075676,0.9697599,2.033344
49.94978,80.50024,-1.074367,0.9697599,2.033344
50.00062,78.97446,-1.064544,0.9697599,2.039804
50.05006,76.05004,-1.058651,0.9697599,2.039804
50.10006,76.17719,-1.02329,0.9697599,2.033344
50.15002,73.50706,-1.02591,0.9695953,2.033344
50.19943,72.10844,-1.0246,0.9697599,2.039804
50.25071,104.4042,-1.008884,0.9699246,2.033344
50.30072,135.6828,-0.9545335,0.9697599,2.033344
50.34941,112.6688,-0.8726801,0.9697599,2.033344
50.39936,101.7341,-0.7377859,0.9697599,2.033344
50.44918,98.9368,-0.5681858,0.9697599,2.033344
50.50122,97.15671,-0.4352561,0.9699246,2.033344
50.5507,99.19109,-0.3664993,0.9695953,2.033344
50.60004,100.7169,-0.3606059,0.9697599,2.026885
50.64958,100.7169,-0.36388,0.9697599,2.033344
50.69941,88.38345,-0.3704283,0.9699246,2.026885
50.7501,81.39028,-0.3684638,0.9697599,2.026885
50.80044,80.37309,-0.3835248,0.9697599,2.026885
50.84994,78.97446,-0.3861441,0.9697599,2.026885
50.89993,76.55863,-0.3874538,0.9697599,2.026885
50.94943,74.01566,-0.3841796,0.9697599,2.026885
51.00105,86.22193,-0.378941,0.9699246,2.026885
51.05043,123.4765,-0.3972761,0.9697599,2.020426
51.10001,116.8647,-0.4077534,0.9695953,2.026885
51.14918,101.0983,-0.4156113,0.9695953,2.020426
51.19953,94.99519,-0.4162661,0.9697599,2.020426
51.2501,94.2323,-0.4143017,0.9697599,2.020426
51.30022,99.31824,-0.4084082,0.9697599,2.020426
51.35009,101.4798,-0.3972761,0.9697599,2.020426
51.39939,100.5897,-0.3881086,0.9697599,2.020426
51.44935,86.73053,-0.3867989,0.9697599,2.020426
51.5006,84.0604,-0.3815603,0.9697599,2.020426
51.55009,82.28033,-0.3671542,0.9695953,2.020426
51.59993,80.50024,-0.3560221,0.9697599,2.020426
51.64985,78.84731,-0.3612607,0.9697599,2.020426
51.69981,76.81293,-0.3632252,0.9695953,2.020426
51.7508,79.3559,-0.3625704,0.9697599,2.020426
51.80054,131.8683,-0.3560221,0.9697599,2.013967
51.85005,114.3218,-0.3625704,0.9697599,2.013967
51.89959,103.7684,-0.3684638,0.9697599,2.013967
51.94974,97.79247,-0.3802507,0.9697599,2.013967
52.00026,94.86804,-0.4038244,0.9697599,2.013967
52.05005,99.69969,-0.4097179,0.9697599,2.013967
52.09952,102.6241,-0.4503171,0.9697599,2.013967
52.15005,90.67213,-0.4981194,0.9699246,2.013967
52.20004,83.55181,-0.5302059,0.9697599,2.013967
52.25083,83.42466,-0.5570538,0.9697599,2.007508
52.30071,80.50024,-0.6231912,0.9697599,2.007508
52.34934,80.50024,-0.665755,0.9597127,2.007508
52.3993,76.68578,-0.7836238,0.9597127,2.007508
52.45005,76.17719,-0.9905489,0.9597127,2.007508
52.50081,120.0435,-1.080915,0.9598774,2.007508
52.55059,138.8615,-1.126753,0.9597127,2.007508
52.59987,116.4833,-1.11955,0.9598774,2.007508
52.64972,107.9643,-1.109072,0.9597127,2.007508
52.69971,104.5313,-1.108418,0.9598774,2.007508
52.75059,103.0055,-1.108418,0.9597127,2.007508
52.80043,103.2598,-1.105798,0.9597127,2.007508
52.84917,103.7684,-1.101869,0.9598774,2.007508
52.89922,92.7065,-1.10056,0.9598774,2.001049
52.94921,91.56216,-1.101215,0.9598774,2.007508
53.00071,84.44184,-1.101869,0.9598774,2.007508
53.05041,84.44184,-1.103179,0.9597127,2.001049
53.09921,82.02603,-1.101215,0.9598774,2.001049
53.1499,80.11879,-1.114966,0.9597127,2.001049
53.19989,77.83012,-1.205987,0.9597127,2.001049
53.25016,105.2942,-1.260337,0.9597127,2.001049
53.30082,139.7515,-1.23087,0.9597127,2.001049
53.35026,117.7548,-1.196164,0.9598774,2.001049
53.39956,110.1259,-1.159494,0.9598774,2.001049
53.45016,104.0227,-1.130027,0.9598774,2.001049
53.50021,103.387,-1.044245,0.9597127,2.001049
53.55021,103.0055,-0.9119697,0.9598774,2.001049
53.59943,103.387,-0.7718369,0.9598774,2.001049
53.6495,103.5141,-0.6146785,0.9598774,1.994589
53.69941,87.87486,-0.4804391,0.9598774,1.994589
53.75021,87.11198,-0.3867989,0.9598774,1.994589
53.80021,82.91606,-0.3684638,0.9598774,1.994589
53.84941,82.02603,-0.3815603,0.9597127,1.994589
53.89929,79.61021,-0.3763217,0.9597127,1.994589
53.95016,77.32152,-0.3723927,0.9597127,1.994589
54.00021,77.44867,-0.3795958,0.9598774,1.98813
54.0512,93.2151,-0.3907279,0.9598774,1.994589
54.09989,126.0195,-0.3966213,0.9597127,1.994589
54.14958,109.9987,-0.4136468,0.9598774,1.994589
54.19927,102.6241,-0.4195402,0.9597127,1.98813
54.25018,98.6825,-0.4352561,0.9598774,1.98813
54.30019,98.30104,-0.3887634,0.9598774,1.98813
54.34986,99.82683,-0.126178,0.9597127,1.98813
54.39983,102.1155,-0.07248224,0.9598774,1.98813
54.44963,89.40065,-0.06462431,0.9598774,1.98813
54.50056,85.96764,-0.09933012,0.9597127,1.98813
54.55058,83.29751,-0.1215942,0.9597127,1.98813
54.59933,81.64457,-0.3429256,0.9598774,1.98813
54.64986,80.11879,-0.4005503,0.9598774,1.981671
54.69997,79.22876,-0.4051341,0.9597127,1.981671
54.75066,76.17719,-0.3809055,0.9597127,1.981671
54.80066,87.62056,-0.3560221,0.9597127,1.98813
54.8497,87.49342,-0.3527479,0.9597127,1.98813
54.90033,123.095,-0.3507835,0.9598774,1.98813
54.95016,99.06393,-0.3553673,0.9598774,1.98813
55.00104,95.63092,-0.3606059,0.9598774,1.981671
55.05033,95.37663,-0.3560221,0.9597127,1.981671
55.10016,99.06393,-0.3540576,0.9597127,1.981671
55.15016,100.3354,-0.34489,0.9597127,1.981671
55.20012,86.34908,-0.3540576,0.9598774,1.981671
55.25025,83.67896,-0.3527479,0.9598774,1.975212
55.30082,82.15317,-0.3566769,0.9598774,1.981671
55.34929,80.11879,-0.3966213,0.9597127,1.981671
55.40016,78.59301,-0.4660329,0.9598774,1.975212
55.44928,77.32152,-0.5472314,0.9598774,1.981671
55.50128,73.76136,-0.7554662,0.9597127,1.975212
55.55082,91.81647,-0.854345,0.9597127,1.975212
55.59927,135.8099,-0.9014925,0.9598774,1.975212
55.65025,126.6552,-0.9250662,0.9598774,1.975212
55.69999,115.339,-0.9126245,0.9597127,1.975212
55.75101,103.8956,-0.9263759,0.9597127,1.975212
55.80054,101.8612,-0.9361983,0.9598774,1.975212
55.84915,101.8612,-0.9414369,0.9598774,1.975212
55.89982,101.4798,-0.9591172,0.9597127,1.975212
55.94982,101.4798,-0.9787621,0.9597127,1.968753
56.0013,87.74771,-1.018052,0.9597127,1.975212
56.05053,84.0604,-1.072402,0.9597127,1.975212
56.1,82.02603,-1.088773,0.9597127,1.968753
56.15028,81.64457,-1.110382,0.9598774,1.968753
56.20028,79.73734,-1.106453,0.9597127,1.968753
56.2503,77.32152,-1.256408,0.9597127,1.968753
56.30075,76.17719,-1.619837,0.9597127,1.968753
56.34931,125.8923,-1.805153,0.9597127,1.975212
56.39929,134.5384,-1.782234,0.9598774,1.968753
56.44927,112.1602,-1.735741,0.9597127,1.968753
56.50031,104.0227,-1.72068,0.9597127,1.968753
56.5501,102.7513,-1.678771,0.9597127,1.968753
56.59958,101.8612,-1.61067,0.9597127,1.968753
56.64925,101.4798,-1.550425,0.9597127,1.962294
56.70004,101.8612,-1.443034,0.9597127,1.962294
56.75057,96.39381,-1.326475,0.9597127,1.962294
56.80029,88.25631,-1.263612,0.9597127,1.962294
56.85001,84.44184,-1.15753,0.9598774,1.968753
56.89954,82.40748,-0.9466755,0.9598774,1.962294
56.94911,79.73734,-0.7888623,0.9597127,1.968753
57.00027,78.46587,-0.6926029,0.9597127,1.962294
57.05098,75.28716,-0.6585519,0.9598774,1.968753
57.10026,96.64812,-0.5472314,0.9598774,1.962294
57.15026,121.0607,-0.4195402,0.9597127,1.962294
57.19982,134.0298,-0.3809055,0.9597127,1.962294
57.25108,105.6757,-0.4012051,0.9598774,1.962294
57.30013,101.0983,-0.3966213,0.9598774,1.962294
57.34927,98.6825,-0.3966213,0.9597127,1.962294
57.39993,99.44539,-0.3966213,0.9597127,1.955835
57.44953,100.844,-0.3966213,0.9597127,1.962294
57.50014,101.2255,-0.4031696,0.9597127,1.955835
57.55125,98.42819,-0.4254337,0.9598774,1.955835
57.59914,84.44184,-0.4084082,0.9598774,1.955835
57.65008,82.66177,-0.1563,0.9597127,1.955835
57.69952,81.64457,-0.09998495,0.9598774,1.955835
57.75028,80.24594,-0.07772085,0.9597127,1.955835
57.80078,76.68578,-0.1163556,0.9597127,1.955835
57.84956,89.14634,-0.1340359,0.9598774,1.955835
57.89914,121.8235,-0.2532143,0.9597127,1.955835
57.94953,120.0435,-0.4077534,0.9598774,1.955835
58.00077,103.5141,-0.412992,0.9597127,1.949375
58.05089,97.53816,-0.416921,0.9598774,1.955835
58.09974,94.74089,-0.4012051,0.9598774,1.949375
58.14951,98.42819,-0.3881086,0.9598774,1.949375
58.1994,101.0983,-0.3822151,0.9598774,1.949375
58.25069,99.57254,-0.3651897,0.9600421,1.949375
58.30017,86.60338,-0.3606059,0.9597127,1.949375
58.34993,82.53461,-0.3625704,0.9598774,1.955835
58.39993,80.88168,-0.367809,0.9598774,1.955835
58.44955,81.39028,-0.3560221,0.9598774,1.949375
58.50064,78.08442,-0.3684638,0.9597127,1.949375
58.5504,76.81293,-0.4077534,0.9597127,1.949375
58.59989,102.497,-0.4994291,0.9598774,1.949375
58.6495,135.3013,-0.5269318,0.9598774,1.949375
58.70001,131.3597,-0.5459217,0.9598774,1.949375
58.75064,101.8612,-0.5478862,0.9597127,1.942916
58.8002,99.19109,-0.5668762,0.9597127,1.949375
58.85023,98.30104,-0.601582,0.9598774,1.942916
58.89991,98.55534,-0.6199172,0.9598774,1.949375
58.94981,100.2083,-0.6565874,0.9598774,1.949375
59.00105,92.7065,-0.7030801,0.9597127,1.942916
59.05103,85.96764,-0.7502276,0.9598774,1.942916
59.09956,81.51743,-0.7705272,0.9598774,1.942916
59.14925,82.40748,-0.8189844,0.9597127,1.942916
59.20029,78.97446,-0.8484516,0.9598774,1.942916
59.25053,77.95727,-0.9211373,0.9598774,1.942916
59.30062,74.77856,-1.204022,0.9598774,1.942916
59.35005,93.46941,-1.300937,0.9597127,1.942916
59.40004,135.6828,-1.319927,0.9597127,1.936457
59.4498,124.2394,-1.341536,0.9598774,1.942916
59.50052,108.7272,-1.32582,0.9597127,1.942916
59.55048,103.5141,-1.313378,0.9598774,1.942916
59.60001,100.7169,-1.309449,0.9597127,1.942916
59.65005,100.4626,-1.301592,0.9598774,1.936457
59.70005,100.4626,-1.300282,0.9597127,1.936457
59.75076,101.3526,-1.303556,0.9598774,1.936457
59.80027,88.89205,-1.310759,0.9597127,1.936457
59.85025,84.3147,-1.314033,0.9598774,1.936457
59.90013,81.77173,-1.310104,0.9598774,1.936457
59.94918,81.26313,-1.313378,0.9597127,1.936457
60.00067,77.32152,-1.318617,0.9597127,1.936457
60.05034,75.41429,-1.440415,0.9598774,1.936457
60.10005,75.66859,-1.638172,0.9597127,1.936457
60.14953,107.9643,-1.641446,0.9598774,1.936457
60.19936,120.4249,-1.574654,0.9598774,1.936457
60.25052,108.2186,-1.448927,0.9598774,1.929998
60.30013,102.497,-1.281292,0.9598774,1.936457
60.35024,100.2083,-1.179139,0.9598774,1.929998
60.40002,98.6825,-0.9728685,0.9598774,1.936457
60.44995,99.19109,-0.7934461,0.9597127,1.929998
60.50084,99.82683,-0.6264654,0.9598774,1.929998
60.55068,90.16354,-0.4928808,0.9597127,1.929998
60.60033,83.93326,-0.4188854,0.9598774,1.929998
60.65031,82.28033,-0.4038244,0.9600421,1.929998
60.70012,80.88168,-0.4018599,0.9598774,1.929998
60.75104,79.10161,-0.4103727,0.9598774,1.929998
60.80104,77.32152,-0.4031696,0.9598774,1.929998
60.84973,74.14281,-0.4005503,0.9598774,1.929998
60.89979,94.48659,-0.4234692,0.9597127,1.929998
60.94931,131.8683,-0.4221596,0.9598774,1.929998
61.00079,123.6036,-0.4234692,0.9597127,1.923539
61.05079,101.6069,-0.4293627,0.9598774,1.923539
61.09954,93.72369,-0.1523711,0.9598774,1.929998
61.14991,92.83366,0.1848646,0.9598774,1.929998
61.19979,96.39381,0.4566175,0.9598774,1.929998
61.25104,99.44539,0.6150856,0.9598774,1.923539
61.30117,97.28386,0.7080709,0.9598774,1.923539
61.34928,83.67896,0.7211674,0.9597127,1.923539
61.3993,80.50024,0.7015226,0.9598774,1.923539
61.4493,79.61021,0.6465172,0.9597127,1.923539
61.50051,77.83012,0.5004909,0.9598774,1.923539
61.55131,76.55863,-0.3409611,0.9598774,1.923539
61.60001,77.70296,-0.4535912,0.9597127,1.917079
61.64933,84.44184,-0.4182306,0.9597127,1.923539
61.6993,117.2462,-0.4038244,0.9597127,1.917079
61.75102,106.1843,-0.3841796,0.9598774,1.917079
61.80087,95.24948,-0.3723927,0.9598774,1.917079
61.84987,90.29069,-0.3645349,0.9598774,1.917079
61.89925,91.81647,-0.3691186,0.9598774,1.917079
61.94917,95.24948,-0.3756669,0.9598774,1.917079
62.00046,98.42819,-0.3645349,0.9598774,1.917079
62.05031,86.73053,-0.375012,0.9598774,1.917079
62.10001,79.99165,-0.375012,0.9597127,1.917079
62.14949,78.97446,-0.4110275,0.9597127,1.917079
62.19936,77.57583,-0.5256221,0.9597127,1.917079
62.25122,75.66859,-0.5655665,0.9598774,1.91062
62.30091,72.99847,-0.7646337,0.9598774,1.917079
62.35022,75.66859,-0.9001828,0.9598774,1.917079
62.39946,98.42819,-0.8857767,0.9598774,1.917079
62.45003,131.1054,-0.9126245,0.9598774,1.917079
62.50074,114.8304,-0.9407821,0.9597127,1.917079
62.55128,102.6241,-0.944711,0.9597127,1.91062
62.60003,100.2083,-0.9394724,0.9598774,1.91062
62.64973,98.30104,-0.9375079,0.9598774,1.91062
62.69947,98.6825,-0.9316145,0.9600421,1.91062
62.75075,99.44539,-0.9211373,0.9598774,1.91062
62.80079,92.83366,-0.914589,0.9598774,1.91062
62.84924,85.20473,-0.9126245,0.9598774,1.91062
62.89961,82.78893,-0.9191728,0.9598774,1.91062
62.95021,80.88168,-0.9460207,0.9597127,1.91062
63.00086,78.08442,-1.056031,0.9598774,1.91062
63.05039,74.90571,-1.328439,0.9600421,1.91062
63.09999,100.9712,-1.565487,0.9600421,1.91062
63.14994,136.0642,-1.719371,0.9597127,1.904161
63.19949,128.3081,-1.700381,0.9597127,1.91062
63.25076,106.1843,-1.619837,0.9598774,1.904161
63.30138,101.7341,-1.60805,0.9598774,1.91062
63.34975,99.06393,-1.622456,0.9598774,1.904161
63.39949,99.57254,-1.614599,0.9597127,1.904161
63.44949,100.2083,-1.605431,0.9597127,1.904161
63.50071,100.2083,-1.653233,0.9598774,1.904161
63.55034,85.20473,-1.788127,0.9597127,1.904161
63.59975,83.80611,-1.883732,0.9598774,1.904161
63.64975,80.75454,-1.975408,0.9598774,1.904161
63.69975,79.61021,-1.926296,0.9597127,1.904161
63.75053,77.32152,-2.028449,0.9597127,1.904161
63.80103,74.01566,-2.061845,0.9598774,1.904161
63.84973,85.07759,-1.875219,0.9598774,1.897702
63.89936,117.5005,-1.657162,0.9598774,1.904161
63.94957,110.253,-1.23218,0.9598774,1.904161
64.00076,100.2083,-0.8818477,0.9597127,1.904161
64.05027,95.63092,-0.676887,0.9598774,1.897702
64.10027,93.72369,-0.5053225,0.9597127,1.897702
64.15009,96.13953,-0.38287,0.9597127,1.897702
64.19998,97.15671,-0.3625704,0.9598774,1.897702
64.25127,88.63776,-0.3697734,0.9598774,1.891243
64.3012,83.29751,-0.3776314,0.9597127,1.897702
64.34944,82.91606,-0.3881086,0.9597127,1.897702
64.40027,81.26313,-0.3998955,0.9597127,1.897702
64.45014,79.3559,-0.4103727,0.9597127,1.897702
64.50127,78.08442,-0.4012051,0.9597127,1.897702
64.55127,75.79574,-0.3953117,0.9597127,1.897702
64.59952,94.48659,-0.4077534,0.9598774,1.897702
64.64923,122.4593,-0.4247788,0.9598774,1.891243
64.69923,118.772,-0.0816498,0.9598774,1.891243
64.75127,96.64812,0.4441758,0.9598774,1.891243
64.80054,96.01237,0.7139643,0.9598774,1.891243
64.84974,93.59654,0.8010563,0.9597127,1.891243
64.89935,97.28386,0.8567166,0.9598774,1.897702
64.9501,98.30104,0.952976,0.9597127,1.891243
65.0007,91.43503,1.017804,0.9598774,1.891243
65.05049,85.84048,1.046616,0.9598774,1.891243
65.09973,84.0604,1.040723,0.9598774,1.891243
65.1497,82.15317,1.011256,0.9598774,1.891243
65.20033,80.50024,0.949047,0.9598774,1.891243
65.25027,78.97446,0.8069497,0.9598774,1.891243
65.30122,77.32152,0.2647534,0.9598774,1.891243
65.34948,84.44184,-0.1510614,0.9597127,1.891243
65.39969,103.7684,-0.4110275,0.9597127,1.891243
65.44947,104.9128,-0.4346013,0.9598774,1.891243
65.50048,99.31824,-0.431982,0.9598774,1.884784
65.55135,94.10515,-0.4234692,0.9598774,1.891243
65.59935,93.72369,-0.416921,0.9598774,1.891243
65.65024,96.77527,-0.4057889,0.9598774,1.891243
65.70034,99.06393,-0.3907279,0.9598774,1.891243
65.75122,88.12916,-0.3632252,0.9598774,1.884784
65.80068,85.45904,-0.3547124,0.9598774,1.884784
65.84947,82.53461,-0.3619155,0.9598774,1.891243
65.90009,79.73734,-0.3664993,0.9598774,1.891243
65.94961,78.97446,-0.3625704,0.9597127,1.884784
66.00135,76.17719,-0.3579866,0.9598774,1.884784
66.0511,78.72016,-0.3586414,0.9598774,1.884784
66.0995,123.4765,-0.3776314,0.9598774,1.884784
66.15035,126.6552,-0.3887634,0.9597127,1.884784
66.19984,110.6345,-0.3907279,0.9598774,1.884784
66.2507,104.4042,-0.3946568,0.9598774,1.884784
66.30048,102.497,-0.4195402,0.9597127,1.884784
66.35001,101.3526,-0.4450785,0.9598774,1.884784
66.39922,101.4798,-0.4745457,0.9597127,1.878325
66.4501,101.3526,-0.5243125,0.9600421,1.884784
66.50045,90.03638,-0.5681858,0.9598774,1.884784
66.55034,86.09478,-0.6592067,0.9597127,1.878325
66.59943,84.44184,-0.7037349,0.9597127,1.884784
66.6497,82.78893,-0.7541566,0.9598774,1.878325
66.69943,81.64457,-0.8680963,0.9598774,1.878325
66.75109,78.33871,-1.128062,0.9598774,1.878325
66.8006,94.35944,-1.22956,0.9597127,1.878325
66.85009,133.3941,-1.249205,0.9598774,1.884784
66.89929,129.071,-1.25117,0.9598774,1.884784
66.94984,109.7444,-1.245931,0.9597127,1.878325
67.0008,105.6757,-1.240038,0.9598774,1.878325
67.05046,104.0227,-1.240693,0.9598774,1.878325
67.10034,103.7684,-1.248551,0.9597127,1.878325
67.14983,103.2598,-1.241347,0.9598774,1.878325
67.19971,98.42819,-1.255754,0.9598774,1.878325
67.25069,89.5278,-1.240038,0.9598774,1.878325
67.30051,88.00201,-1.241347,0.9597127,1.871865
67.35001,84.0604,-1.241347,0.9597127,1.871865
67.40001,83.67896,-1.248551,0.9598774,1.878325
67.45013,81.26313,-1.272779,0.9598774,1.871865
67.50124,78.72016,-1.3841,0.9598774,1.871865
67.55068,90.67213,-1.38148,0.9598774,1.878325
67.59933,118.5177,-1.354632,0.9597127,1.871865
67.64996,127.1638,-1.274089,0.9597127,1.878325
67.69947,118.5177,-1.184378,0.9598774,1.871865
67.75134,104.9128,-1.067164,0.9597127,1.871865
67.80048,104.277,-0.933579,0.9597127,1.871865
67.84946,102.6241,-0.7266538,0.9600421,1.871865
67.89946,102.1155,-0.5956886,0.9598774,1.871865
67.95045,101.9884,-0.5406832,0.9597127,1.871865
68.00072,90.92643,-0.5249673,0.9597127,1.871865
68.05083,88.00201,-0.5288962,0.9598774,1.871865
68.0998,85.71333,-0.5197287,0.9597127,1.871865
68.14973,83.67896,-0.5099063,0.9597127,1.871865
68.19983,82.40748,-0.5125256,0.9597127,1.871865
68.25108,80.75454,-0.5053225,0.9600421,1.871865
68.30108,85.58618,-0.4503171,0.9597127,1.871865
68.34933,118.1362,0.02967069,0.9598774,1.871865
68.40019,129.9611,0.5122778,0.9598774,1.871865
68.44998,109.8716,0.8056401,0.9598774,1.871865
68.50126,101.8612,0.9510115,0.9597127,1.871865
68.55121,98.6825,1.054474,0.9598774,1.871865
68.59984,97.9196,1.188714,0.9598774,1.865406
68.64955,101.9884,1.248303,0.9597127,1.865406
68.70035,101.8612,1.309856,0.9600421,1.865406
68.75055,94.10515,1.383197,0.9598774,1.865406
68.80034,87.62056,1.480111,0.9597127,1.865406
68.84972,85.96764,1.512853,0.9598774,1.865406
68.89958,82.02603,1.509578,0.9598774,1.871865
68.94933,82.78893,1.461776,0.9597127,1.865406
69.00146,81.00883,1.40939,0.9598774,1.865406
69.05132,98.42819,1.358968,0.9598774,1.865406
69.10012,129.1982,1.159901,0.9600421,1.865406
69.15008,115.0847,1.000778,0.9597127,1.865406
69.19995,103.5141,0.7742084,0.9597127,1.865406
69.25092,93.72369,0.3335102,0.9598774,1.865406
69.30112,93.2151,-0.0888529,0.9598774,1.865406
69.35046,99.95398,-0.4496623,0.9598774,1.865406
69.40012,101.3526,-0.4300175,0.9598774,1.865406
69.44947,88.00201,-0.4136468,0.9598774,1.865406
69.50124,83.80611,-0.4077534,0.9598774,1.865406
69.55124,80.62739,-0.3920376,0.9600421,1.865406
69.60009,79.48306,-0.378941,0.9598774,1.858947
69.64997,79.10161,-0.3547124,0.9598774,1.865406
69.7001,77.57583,-0.3743572,0.9598774,1.865406
69.75057,85.84048,-0.4287078,0.9597127,1.858947
69.80047,132.8855,-0.4968098,0.9597127,1.858947
69.85004,122.7136,-0.5243125,0.9598774,1.858947
69.89929,110.253,-0.5282415,0.9598774,1.858947
69.94962,105.4214,-0.5897951,0.9598774,1.858947
70.00076,103.2598,-0.6539681,0.9598774,1.858947
70.05048,102.2427,-0.7148669,0.9600421,1.858947
70.09992,102.3698,-0.7548113,0.9598774,1.858947
70.14962,95.50377,-0.7816592,0.9598774,1.858947
70.20024,88.12916,-0.8144006,0.9598774,1.858947
70.25121,85.71333,-0.8576192,0.9598774,1.858947
70.30065,83.42466,-0.9126245,0.9600421,1.858947
70.35007,81.13599,-0.9329242,0.9597127,1.852488
70.39983,79.3559,-1.051448,0.9598774,1.852488
70.44966,88.7649,-1.147707,0.9597127,1.858947
70.50069,128.181,-1.171936,0.9598774,1.852488
70.55107,125.5108,-1.164078,0.9597127,1.852488
70.59984,111.1431,-1.151636,0.9598774,1.852488
70.64932,108.7272,-1.143778,0.9598774,1.852488
70.69979,104.0227,-1.137885,0.9597127,1.852488
70.75092,103.387,-1.130682,0.9597127,1.852488
70.80083,103.1327,-1.133956,0.9597127,1.852488
70.84989,103.7684,-1.131991,0.9600421,1.852488
70.89947,90.92643,-1.109727,0.9598774,1.852488
70.94994,88.25631,-1.076986,0.9597127,1.852488
71.00132,85.58618,-1.033767,0.9600421,1.852488
71.05094,84.0604,-0.9571528,0.9598774,1.852488
71.10019,79.86449,-0.903457,0.9598774,1.852488
71.14954,78.33871,-0.8811929,0.9598774,1.852488
71.2002,88.25631,-0.8026137,0.9598774,1.852488
71.25087,131.2325,-0.5786631,0.9598774,1.852488
71.30046,115.2118,-0.5171093,0.9597127,1.846029
71.35044,106.9472,-0.4974646,0.9598774,1.852488
71.39969,104.1499,-0.5033581,0.9597127,1.852488
71.44965,102.1155,-0.4928808,0.9598774,1.846029
71.50128,102.497,-0.5053225,0.9598774,1.852488
71.55119,103.387,-0.4935357,0.9597127,1.846029
71.60032,96.52097,-0.477165,0.9598774,1.846029
71.64989,90.29069,-0.3180422,0.9598774,1.846029
71.69965,87.36626,0.2018901,0.9597127,1.846029
71.75145,86.22193,0.5423998,0.9598774,1.846029
71.80093,83.29751,0.7008678,0.9598774,1.846029
71.84946,82.28033,0.7460508,0.9598774,1.846029
71.90021,78.08442,0.7401574,0.9598774,1.846029
71.9502,81.13599,0.7545636,0.9598774,1.846029
72.00149,125.5108,0.7735536,0.9598774,1.846029
72.05071,124.2394,0.779447,0.9598774,1.846029
72.1002,103.7684,0.7781373,0.9598774,1.846029
72.14993,98.9368,0.764386,0.9597127,1.846029
72.19999,94.35944,0.7414671,0.9597127,1.846029
72.25099,100.7169,0.685152,0.9598774,1.846029
72.30104,102.2427,0.458582,0.9598774,1.83957
72.34973,99.19109,-0.2794074,0.9598774,1.846029
72.40044,87.62056,-0.4627588,0.9597127,1.846029
72.45019,85.33189,-0.424124,0.9598774,1.846029
72.50149,82.15317,-0.428053,0.9597127,1.83957
72.55144,81.26313,-0.4103727,0.9597127,1.83957
72.59997,80.24594,-0.3776314,0.9598774,1.83957
72.64973,79.3559,-0.3547124,0.9598774,1.83957
72.69972,78.97446,-0.359951,0.9598774,1.846029
72.75145,137.8443,-0.3573318,0.9598774,1.83957
72.80032,114.4489,-0.3651897,0.9598774,1.83957
72.85047,102.8784,-0.36388,0.9598774,1.83957
72.90026,100.2083,-0.3900731,0.9597127,1.83957
72.95018,100.0811,-0.4503171,0.9600421,1.83957
73.00043,103.0055,-0.4791295,0.9598774,1.83957
73.05151,103.387,-0.5295511,0.9598774,1.83957
73.09947,100.9712,-0.6284298,0.9597127,1.83957
73.14943,88.5106,-0.6853997,0.9597127,1.83957
73.19943,85.71333,-0.7404051,0.9598774,1.83957
73.25071,82.91606,-0.8111265,0.9598774,1.83957
73.30089,82.02603,-0.8969087,0.9597127,1.83311
73.35039,79.73734,-1.007574,0.9598774,1.83311
73.39993,77.95727,-1.232835,0.9598774,1.83311
73.44968,108.0915,-1.312069,0.9598774,1.83957
73.50043,141.4044,-1.368384,0.9598774,1.83311
73.55131,126.2737,-1.369038,0.9597127,1.83957
73.59994,110.253,-1.332368,0.9598774,1.83957
73.64973,107.5829,-1.310759,0.9600421,1.83957
73.69965,102.2427,-1.313378,0.9598774,1.83957
73.75053,103.2598,-1.30814,0.9597127,1.83311
73.8013,104.4042,-1.293734,0.9598774,1.83311
73.84956,101.0983,-1.274089,0.9598774,1.83311
73.90038,89.40065,-1.25117,0.9598774,1.83311
73.95032,87.36626,-1.196819,0.9598774,1.83311
74.0013,83.42466,-1.092047,0.9598774,1.83311
74.05072,82.15317,-0.9905489,0.9600421,1.83311
74.09959,80.50024,-0.9001828,0.9600421,1.83311
74.15016,77.06723,-0.8569643,0.9597127,1.83311
74.2001,83.67896,-0.7142121,0.9598774,1.83311
74.25108,129.071,-0.5190738,0.9598774,1.83311
74.30071,111.3974,-0.4745457,0.9598774,1.83311
74.35059,104.277,-0.4745457,0.9600421,1.83311
74.40059,102.2427,-0.4725812,0.9598774,1.83311
74.45006,98.80965,-0.4549009,0.9598774,1.83311
74.50117,102.2427,-0.4490074,0.9598774,1.826651
74.55104,104.1499,-0.4562105,0.9598774,1.826651
74.59955,94.35944,-0.458175,0.9597127,1.826651
74.65054,89.40065,-0.4077534,0.9598774,1.826651
74.70017,86.85767,0.07878267,0.9598774,1.826651
74.75104,84.69615,0.4566175,0.9598774,1.826651
74.80074,83.93326,0.6641975,0.9598774,1.826651
74.85055,80.62739,0.6648524,0.9600421,1.826651
74.89996,77.95727,0.6858068,0.9598774,1.826651
74.95013,99.95398,0.745396,0.9598774,1.826651
75.00117,124.1122,0.8835644,0.9598774,1.826651
75.05118,111.7788,1.001433,0.9598774,1.826651
75.09992,102.2427,1.057748,0.9598774,1.826651
75.15015,95.63092,1.079358,0.9598774,1.826651
75.19944,96.39381,1.069535,0.9597127,1.826651
75.25044,101.9884,1.035484,0.9598774,1.820192
75.3011,102.2427,0.9824432,0.9600421,1.820192
75.35042,89.40065,0.941844,0.9598774,1.826651
75.39971,86.22193,0.8711227,0.9598774,1.826651
75.44971,85.20473,0.1894483,0.9598774,1.826651
75.50117,83.29751,-0.299707,0.9598774,1.820192
75.55094,82.66177,-0.4437689,0.9598774,1.826651
75.5995,80.24594,-0.4031696,0.9598774,1.826651
75.64943,112.9231,-0.3782862,0.9598774,1.820192
75.70045,134.9198,-0.3664993,0.9600421,1.826651
75.75064,115.7204,-0.3671542,0.9597127,1.820192
75.8007,103.5141,-0.348819,0.9598774,1.820192
75.8504,99.69969,-0.3507835,0.9600421,1.820192
75.9004,97.79247,-0.3573318,0.9598774,1.820192
75.95056,102.6241,-0.3520931,0.9598774,1.820192
76.00063,103.8956,-0.3809055,0.9598774,1.820192
76.05119,91.94361,-0.4293627,0.9598774,1.820192
76.09991,89.40065,-0.4797843,0.9598774,1.820192
76.15041,86.60338,-0.5282415,0.9598774,1.820192
76.20044,84.18755,-0.6035465,0.9597127,1.820192
76.25139,82.66177,-0.7017704,0.9598774,1.820192
76.30118,79.73734,-0.9460207,0.9598774,1.813733
76.3503,89.2735,-1.012813,0.9597127,1.820192
76.40044,135.6828,-1.020671,0.9598774,1.820192
76.45037,128.9439,-1.049483,0.9598774,1.813733
76.50043,113.9403,-1.050138,0.9598774,1.813733
76.55157,109.363,-1.042935,0.9598774,1.813733
76.59981,107.71,-1.04228,0.9598774,1.813733
76.6497,106.3114,-1.037042,0.9598774,1.813733
76.69942,106.3114,-1.033767,0.9598774,1.813733
76.75094,106.5657,-1.031803,0.9598774,1.813733
76.8009,94.99519,-1.030493,0.9598774,1.813733
76.85027,91.81647,-1.047519,0.9598774,1.813733
76.89942,89.40065,-1.120859,0.9597127,1.813733
76.94984,87.23911,-1.146398,0.9598774,1.813733
77.00122,84.44184,-1.179794,0.9597127,1.813733
77.05106,82.91606,-1.252479,0.9598774,1.813733
77.09982,104.0227,-1.617873,0.9598774,1.813733
77.15023,140.1329,-1.936773,0.9598774,1.813733
77.20016,116.7376,-1.921057,0.9597127,1.813733
77.25064,110.6345,-1.89159,0.9598774,1.813733
77.30038,109.1087,-1.906651,0.9598774,1.813733
77.34951,105.8028,-1.96624,0.9597127,1.813733
77.40038,105.2942,-2.734352,0.9598774,1.813733
77.45037,106.82,-3.428468,0.9598774,1.813733
77.50125,94.74089,-3.513595,0.9598774,1.813733
77.55038,91.30788,-3.594794,0.9597127,1.807274
77.59993,88.89205,-3.516215,0.9597127,1.807274
77.64963,88.00201,-3.251665,0.9598774,1.807274
77.70054,84.82329,-2.086728,0.9598774,1.807274
77.75117,81.77173,-1.689249,0.9598774,1.813733
77.80088,95.37663,-1.111692,0.9597127,1.807274
77.85002,138.2257,-0.8569643,0.9600421,1.813733
77.90005,136.6999,-0.5950337,0.9598774,1.807274
77.94968,107.9643,-0.4529364,0.9597127,1.807274
78.00139,103.0055,-0.4156113,0.9598774,1.807274
78.0513,101.4798,-0.4175758,0.9597127,1.807274
78.10003,101.9884,-0.4051341,0.9598774,1.807274
78.15038,103.7684,-0.4156113,0.9598774,1.807274
78.19992,96.64812,-0.4267433,0.9598774,1.800815
78.25102,90.03638,-0.4614492,0.9598774,1.807274
78.3008,87.87486,-0.4594847,0.9598774,1.807274
78.3505,85.33189,0.03032552,0.9600421,1.807274
78.40038,84.18755,0.2798144,0.9598774,1.807274
78.45015,79.99165,0.3741094,0.9600421,1.807274
78.50101,92.07076,0.6648524,0.9598774,1.807274
78.55065,92.07076,0.8835644,0.9598774,1.807274
78.60017,116.6105,1.025662,0.9598774,1.807274
78.64989,105.0399,1.097693,0.9598774,1.807274
78.69961,95.88522,1.157937,0.9598774,1.800815
78.75165,93.85085,1.252887,0.9597127,1.800815
78.80065,101.0983,1.303308,0.9597127,1.800815
78.85015,103.1327,1.338669,0.9600421,1.800815
78.89966,101.7341,1.347836,0.9598774,1.800815
78.95048,87.36626,1.334085,0.9598774,1.807274
79.00124,85.07759,1.307237,0.9598774,1.807274
79.05119,82.78893,1.25747,0.9600421,1.800815
79.09985,81.64457,1.088525,0.9600421,1.807274
79.14965,82.66177,0.8344525,0.9597127,1.800815
79.20016,132.1226,0.4945975,0.9598774,1.800815
79.25065,137.3357,-0.05545674,0.9598774,1.807274
79.30119,115.339,-0.3226259,0.9598774,1.800815
79.34965,100.4626,-0.4496623,0.9598774,1.800815
79.40027,95.24948,-0.4254337,0.9598774,1.800815
79.44986,96.77527,-0.4149565,0.9600421,1.800815
79.50068,101.3526,-0.397931,0.9598774,1.800815
79.55064,104.0227,-0.3776314,0.9598774,1.800815
79.5999,91.94361,-0.3625704,0.9597127,1.800815
79.65041,87.36626,-0.3494738,0.9600421,1.800815
79.70042,85.96764,-0.348819,0.9598774,1.800815
79.75076,84.3147,-0.3651897,0.9598774,1.800815
79.80143,82.02603,-0.4594847,0.9598774,1.800815
79.85035,98.6825,-0.5426476,0.9598774,1.800815
79.90045,150.6863,-0.6022368,0.9598774,1.800815
79.94989,131.8683,-0.6984963,0.9598774,1.794355
80.00161,117.6276,-0.7056994,0.9597127,1.794355
80.05141,111.6517,-0.7037349,0.9598774,1.800815
80.10001,108.8544,-0.7089735,0.9598774,1.794355
80.15064,108.2186,-0.7063542,0.9598774,1.794355
80.20045,109.4901,-0.7174863,0.9598774,1.794355
80.25164,110.1259,-0.7620144,0.9598774,1.794355
80.3009,96.77527,-0.7842786,0.9597127,1.800815
80.35064,94.86804,-0.8058878,0.9598774,1.794355
80.40019,93.08795,-0.835355,0.9598774,1.794355
80.44964,89.40065,-0.8838122,0.9598774,1.794355
80.50164,88.25631,-1.014123,0.9598774,1.794355
80.55098,109.8716,-1.029838,0.9598774,1.794355
80.59943,157.1709,-0.9964424,0.9597127,1.794355
80.65014,137.4628,-0.9440562,0.9598774,1.794355
80.69985,124.1122,-0.8563095,0.9597127,1.787896
80.75114,115.9747,-0.7174863,0.9598774,1.794355
80.80052,112.0331,-0.5321704,0.9600421,1.787896
80.85014,111.6517,-0.462104,0.9598774,1.787896
80.89989,113.3046,-0.4666878,0.9598774,1.794355
80.95049,104.0227,-0.4693071,0.9598774,1.794355
81.00053,99.31824,-0.4686522,0.9597127,1.787896
81.05114,94.86804,-0.4817488,0.9598774,1.787896
81.10062,94.35944,-0.4699619,0.9598774,1.794355
81.14944,92.57936,-0.458175,0.9598774,1.787896
81.20048,88.7649,-0.4483526,0.9598774,1.787896
81.25101,92.83366,-0.4418044,0.9598774,1.787896
81.3006,131.4868,-0.4300175,0.9598774,1.787896
81.34978,141.5316,0.08336645,0.9597127,1.787896
81.39954,118.1362,0.6786037,0.9598774,1.787896
81.44988,114.0675,0.7938532,0.9600421,1.787896
81.50101,109.4901,0.9025544,0.9598774,1.787896
81.55148,109.1087,1.024352,0.9597127,1.787896
81.60013,113.686,1.05251,0.9598774,1.787896
81.64953,114.4489,1.05251,0.9598774,1.787896
81.69956,100.7169,1.03352,0.9598774,1.787896
81.7515,95.75809,0.9739305,0.9600421,1.787896
81.8007,94.35944,0.9064834,0.9597127,1.787896
81.85001,93.2151,0.8292138,0.9600421,1.787896
81.9006,89.78209,0.07485372,0.9598774,1.781437
81.95026,89.0192,-0.4869874,0.9600421,1.787896
82.00126,115.8476,-0.3841796,0.9598774,1.787896
82.051,153.7379,-0.3926924,0.9598774,1.787896
82.09975,123.2222,-0.3684638,0.9598774,1.787896
82.15038,111.3974,-0.3723927,0.9598774,1.787896
82.2,107.2015,-0.3573318,0.9598774,1.787896
82.25151,105.5485,-0.3527479,0.9598774,1.781437
82.30105,112.0331,-0.333758,0.9600421,1.781437
82.34975,111.7788,-0.3403063,0.9598774,1.787896
82.40034,106.3114,-0.359951,0.9598774,1.781437
82.44975,94.48659,-0.3815603,0.9600421,1.781437
82.501,92.19792,-0.4149565,0.9598774,1.781437
82.55099,89.78209,-0.454246,0.9598774,1.781437
82.59964,87.49342,-0.5000839,0.9598774,1.781437
82.65012,86.22193,-0.6303943,0.9600421,1.781437
82.69952,83.17036,-0.9348887,0.9598774,1.781437
82.75051,87.11198,-1.010849,0.9598774,1.781437
82.80053,141.5316,-1.017397,0.9598774,1.774978
82.84988,137.59,-1.030493,0.9600421,1.781437
82.89988,122.4593,-1.012158,0.9598774,1.781437
82.94963,116.3562,-0.9964424,0.9598774,1.781437
83.001,113.686,-0.9885845,0.9597127,1.781437
83.05072,111.2702,-0.9846555,0.9598774,1.781437
83.10061,111.2702,-0.982691,0.9598774,1.781437
83.15,104.9128,-0.982691,0.9598774,1.781437
83.19949,98.6825,-0.9767975,0.9598774,1.781437
83.25142,93.59654,-0.9767975,0.9598774,1.781437
83.30122,91.18073,-0.9630462,0.9598774,1.774978
83.34985,88.7649,-0.9414369,0.9598774,1.781437
83.39973,87.11198,-0.9054214,0.9598774,1.781437
83.45022,84.69615,-0.8785735,0.9598774,1.774978
83.50157,90.79928,-0.8255326,0.9598774,1.774978
83.5515,144.3289,-0.631704,0.9598774,1.781437
83.60025,130.724,-0.5138353,0.9597127,1.774978
83.64954,116.3562,-0.4810939,0.9597127,1.774978
83.70068,111.7788,-0.4791295,0.9597127,1.774978
83.75141,107.9643,-0.4738908,0.9598774,1.774978
83.80141,107.8372,-0.4909163,0.9598774,1.774978
83.84948,109.7444,-0.4614492,0.9598774,1.774978
83.90041,99.69969,-0.4372206,0.9598774,1.774978
83.95037,94.48659,0.05651858,0.9597127,1.774978
84.00117,91.30788,0.5843087,0.9598774,1.768519
84.05163,89.90925,0.8030208,0.9598774,1.774978
84.10016,87.74771,0.952976,0.9597127,1.774978
84.14999,85.84048,1.040723,0.9598774,1.774978
84.19999,82.40748,1.046616,0.9598774,1.774978
84.2506,86.34908,1.065606,0.9598774,1.774978
84.30161,135.4285,1.131089,0.9598774,1.768519
84.35036,130.5968,1.259435,0.9598774,1.774978
84.40037,107.0743,1.341943,0.9598774,1.768519
84.44984,101.7341,1.348491,0.9600421,1.774978
84.50076,98.6825,1.349801,0.9598774,1.768519
84.55138,103.387,1.337359,0.9598774,1.768519
84.60011,107.3286,1.307892,0.9598774,1.774978
84.6506,106.9472,1.242409,0.9597127,1.774978
84.70065,91.81647,1.145495,0.9600421,1.774978
84.75049,88.25631,1.10817,0.9598774,1.774978
84.80167,84.3147,0.8776709,0.9597127,1.768519
84.85007,83.67896,0.6406238,0.9598774,1.768519
84.89973,83.55181,-0.3180422,0.9598774,1.768519
84.95024,82.91606,-0.4339464,0.9598774,1.768519
85.00049,109.6173,-0.3861441,0.9597127,1.768519
85.05158,139.4972,-0.3822151,0.9598774,1.768519
85.10015,112.5417,-0.3776314,0.9598774,1.768519
85.14983,104.1499,-0.3651897,0.9598774,1.768519
85.20036,102.3698,-0.3619155,0.9598774,1.768519
85.25099,102.7513,-0.3363773,0.9598774,1.768519
85.30167,106.9472,-0.3455448,0.9598774,1.768519
85.35001,107.8372,-0.3317935,0.9600421,1.762059
85.39958,99.44539,-0.3507835,0.9597127,1.768519
85.45058,90.41783,-0.3664993,0.9598774,1.768519
85.50076,87.11198,-0.3822151,0.9598774,1.762059
85.55161,85.58618,-0.3998955,0.9598774,1.762059
85.59982,84.44184,-0.4686522,0.9597127,1.768519
85.65056,83.67896,-0.6886739,0.9598774,1.768519
85.70015,83.55181,-0.8333906,0.9598774,1.762059
85.751,103.2598,-0.8818477,0.9598774,1.768519
85.80101,125.7652,-0.8831574,0.9597127,1.768519
85.85059,117.7548,-0.8720253,0.9598774,1.762059
85.89983,114.0675,-0.8595836,0.9598774,1.762059
85.95036,111.3974,-0.8576192,0.9598774,1.762059
86.00096,109.1087,-0.8517257,0.9598774,1.762059
86.05174,109.1087,-0.8530353,0.9598774,1.762059
86.10023,101.6069,-0.8569643,0.9598774,1.762059
86.15057,95.63092,-0.8687512,0.9598774,1.762059
86.20023,92.57936,-0.8641673,0.9598774,1.762059
86.25074,90.54498,-0.8595836,0.9598774,1.762059
86.30085,88.89205,-0.8602384,0.9598774,1.762059
86.35048,86.09478,-0.8955991,0.9600421,1.762059
86.40013,88.25631,-0.9925134,0.9597127,1.762059
86.45074,142.1673,-1.016742,0.9598774,1.762059
86.50148,152.2121,-0.9997164,0.9598774,1.762059
86.55123,122.4593,-0.974833,0.9597127,1.762059
86.59998,113.8132,-0.9329242,0.9600421,1.762059
86.65013,109.4901,-0.8903605,0.9600421,1.762059
86.69997,105.93,-0.7921365,0.9598774,1.762059
86.75084,107.0743,-0.676887,0.9598774,1.762059
86.80086,110.5073,-0.5426476,0.9597127,1.762059
86.84983,97.9196,-0.4869874,0.9598774,1.7556
86.90057,93.08795,-0.4804391,0.9600421,1.7556
86.94995,89.78209,-0.4889519,0.9598774,1.762059
87.00135,87.87486,-0.4948453,0.9598774,1.762059
87.0511,86.09478,-0.4830584,0.9697599,1.7556
87.10047,83.29751,-0.4679974,0.9697599,1.7556
87.14984,85.20473,-0.4745457,0.9697599,1.7556
87.19985,120.0435,-0.5380638,0.9697599,1.7556
87.25082,148.7791,-0.3848345,0.9699246,1.7556
87.30155,120.8064,0.2418345,0.9697599,1.7556
87.34985,105.93,0.5410902,0.9697599,1.7556
87.39987,103.7684,0.7480153,0.9697599,1.7556
87.44965,104.0227,0.8920771,0.9699246,1.7556
87.5014,106.82,0.983098,0.9697599,1.7556
87.5511,108.9815,1.069535,0.9699246,1.7556
87.59959,93.34225,1.101622,0.9697599,1.749141
87.65037,92.45221,1.116028,0.9699246,1.749141
87.70032,88.7649,1.102931,0.9697599,1.7556
87.75135,87.11198,1.078703,0.9697599,1.749141
87.80087,85.71333,1.006017,0.9699246,1.7556
87.84959,83.67896,0.7689698,0.9699246,1.7556
87.90023,116.8647,0.1350978,0.9697599,1.749141
87.94986,148.9062,-0.299707,0.9697599,1.7556
88.00111,114.7032,-0.4149565,0.9699246,1.749141
88.05086,104.1499,-0.4018599,0.9697599,1.749141
88.10059,94.35944,-0.3940021,0.9699246,1.749141
88.14986,101.7341,-0.3717379,0.9697599,1.749141
88.19995,107.9643,-0.3710831,0.9699246,1.7556
88.25085,108.3458,-0.359951,0.9699246,1.749141
88.30157,91.94361,-0.3383418,0.9697599,1.749141
88.3501,89.0192,-0.348819,0.9697599,1.749141
88.40009,85.20473,-0.3514383,0.9697599,1.749141
88.44959,85.20473,-0.3887634,0.9699246,1.749141
88.50057,84.82329,-0.4326368,0.9697599,1.749141
88.55131,83.29751,-0.6271202,0.9697599,1.749141
88.60009,97.15671,-0.7895172,0.9699246,1.749141
88.64986,153.1021,-0.8811929,0.9699246,1.749141
88.70056,154.3736,-0.9054214,0.9697599,1.742682
88.75085,117.2462,-0.8877411,0.9699246,1.742682
88.80151,110.3802,-0.8818477,0.9699246,1.742682
88.85009,107.5829,-0.8759543,0.9697599,1.742682
88.89981,106.0571,-0.8687512,0.9699246,1.742682
88.95059,108.8544,-0.8667867,0.9697599,1.749141
89.00177,110.3802,-0.8680963,0.9697599,1.742682
89.05098,95.63092,-0.8785735,0.9699246,1.749141
89.09962,91.81647,-0.8798832,0.9699246,1.749141
89.15059,90.29069,-0.8772639,0.9699246,1.749141
89.19996,88.7649,-0.8713705,0.9697599,1.742682
89.25107,86.85767,-0.8720253,0.9697599,1.749141
89.30171,83.93326,-0.8641673,0.9697599,1.749141
89.34974,134.157,-0.8281519,0.9697599,1.742682
89.40042,154.8822,-0.7495728,0.9697599,1.742682
89.45007,121.8235,-0.6042013,0.9699246,1.742682
89.50059,108.4729,-0.4647233,0.9699246,1.742682
89.55102,106.6929,-0.4555557,0.9697599,1.742682
89.59975,105.0399,-0.4640684,0.9699246,1.742682
89.65063,107.9643,-0.462104,0.9699246,1.742682
89.69976,109.7444,-0.4660329,0.9697599,1.742682
89.75059,109.4901,-0.4810939,0.9699246,1.742682
89.80107,92.7065,-0.4856777,0.9697599,1.742682
89.84959,90.29069,-0.4653781,0.9699246,1.742682
89.90076,89.65494,-0.07575636,0.9697599,1.736223
89.95034,87.49342,0.03752861,0.9699246,1.742682
90.00104,84.0604,0.06568614,0.9697599,1.742682
90.05099,111.1431,0.3708353,0.9699246,1.742682
90.10032,154.6279,0.7067612,0.9699246,1.742682
90.15075,127.1638,0.8822548,0.9697599,1.742682
90.20062,108.8544,0.9909559,0.9699246,1.736223
90.25163,100.7169,1.038758,0.9697599,1.742682
90.30163,100.2083,1.037449,0.9697599,1.742682
90.35007,109.363,0.9909559,0.9697599,1.736223
90.39987,111.3974,0.9424987,0.9697599,1.742682
90.44987,96.90242,0.8743969,0.9699246,1.742682
90.50111,92.45221,0.7761729,0.9697599,1.742682
90.55087,90.67213,0.08729542,0.9697599,1.742682
90.5996,89.2735,-0.3579866,0.9697599,1.742682
90.64962,87.87486,-0.3940021,0.9699246,1.742682
90.69962,86.98483,-0.3737024,0.9699246,1.736223
90.75133,98.6825,-0.3671542,0.9699246,1.736223
90.80135,151.9578,-0.3586414,0.9699246,1.742682
90.85017,122.8407,-0.3357225,0.9699246,1.736223
90.90035,107.9643,-0.3350677,0.9697599,1.736223
90.94997,102.497,-0.3494738,0.9699246,1.736223
91.00136,105.0399,-0.3363773,0.9697599,1.736223
91.05112,112.796,-0.3350677,0.9699246,1.736223
91.1007,112.6688,-0.3619155,0.9699246,1.736223
91.15017,97.66531,-0.3953117,0.9697599,1.736223
91.2001,94.10515,-0.409063,0.9697599,1.736223
91.25137,91.81647,-0.4326368,0.9699246,1.736223
91.3008,90.54498,-0.4522816,0.9697599,1.736223
91.35033,89.90925,-0.608785,0.9697599,1.736223
91.39959,89.14634,-0.854345,0.9697599,1.736223
91.45049,104.0227,-0.9152438,0.9699246,1.736223
91.50162,153.9921,-0.9237566,0.9699246,1.729764
91.5518,126.4009,-0.918518,0.9699246,1.736223
91.60016,120.5521,-0.9001828,0.9697599,1.736223
91.6501,118.1362,-0.8916701,0.9699246,1.729764
91.69999,117.2462,-0.8870863,0.9697599,1.736223
91.75168,114.5761,-0.8838122,0.9697599,1.736223
91.80116,116.3562,-0.8811929,0.9697599,1.729764
91.84987,104.1499,-0.8772639,0.9699246,1.736223
91.89997,101.0983,-0.854345,0.9697599,1.729764
91.94982,96.77527,-0.7941009,0.9697599,1.729764
92.00092,94.48659,-0.7227249,0.9697599,1.729764
92.05061,92.96081,-0.6172978,0.9699246,1.729764
92.10062,90.29069,-0.5668762,0.9699246,1.736223
92.15035,99.44539,-0.5040129,0.9697599,1.736223
92.20013,162.6383,-0.4522816,0.9699246,1.729764
92.25086,140.0058,-0.4516267,0.9697599,1.736223
92.30087,120.9335,-0.4824036,0.9699246,1.736223
92.3508,118.0091,-0.4738908,0.9697599,1.729764
92.40073,115.339,-0.4863325,0.9697599,1.729764
92.45074,115.0847,-0.4588298,0.9699246,1.729764
92.50162,114.5761,-0.3861441,0.9699246,1.729764
92.55112,115.2118,0.09318886,0.9697599,1.729764
92.60062,100.3354,0.394409,0.9697599,1.729764
92.65061,97.28386,0.6301466,0.9697599,1.729764
92.70061,95.24948,0.7486702,0.9699246,1.729764
92.75117,93.59654,0.8488587,0.9699246,1.729764
92.80131,91.43503,0.8357621,0.9697599,1.729764
92.85018,88.63776,0.7873049,0.9699246,1.723305
92.90082,134.157,0.7676601,0.9697599,1.729764
92.95027,158.8238,0.7178933,0.9697599,1.729764
93.00106,143.566,0.6609234,0.9697599,1.723305
93.05098,110.6345,0.3269619,0.9697599,1.729764
93.10021,104.5313,-0.2610722,0.9699246,1.723305
93.14991,105.5485,-0.412992,0.9699246,1.723305
93.20046,112.2874,-0.4044792,0.9697599,1.723305
93.25112,113.0503,-0.3848345,0.9699246,1.723305
93.30147,97.15671,-0.3704283,0.9697599,1.723305
93.34991,93.72369,-0.3579866,0.9699246,1.729764
93.39996,92.57936,-0.3579866,0.9699246,1.723305
93.44961,90.41783,-0.3461997,0.9699246,1.723305
93.50098,89.5278,-0.3357225,0.9699246,1.723305
93.55074,85.45904,-0.3606059,0.9699246,1.723305
93.60011,84.44184,-0.4300175,0.9697599,1.723305
93.64986,113.4317,-0.4817488,0.9697599,1.723305
93.69968,156.9166,-0.55247,0.9699246,1.723305
93.75069,124.748,-0.6212268,0.9699246,1.723305
93.80131,116.6105,-0.6212268,0.9697599,1.716845
93.84998,112.9231,-0.6264654,0.9700893,1.716845
93.90073,109.1087,-0.6349781,0.9697599,1.723305
93.95019,110.1259,-0.6310492,0.9699246,1.723305
93.99969,111.7788,-0.6310492,0.9699246,1.723305
94.04968,98.42819,-0.6592067,0.9699246,1.723305
94.10029,94.10515,-0.6664098,0.9697599,1.716845
94.15106,91.68932,-0.6978415,0.9697599,1.723305
94.20085,91.05358,-0.7201055,0.9699246,1.723305
94.25085,88.38345,-0.7515373,0.9699246,1.716845
94.30034,86.73053,-0.7580855,0.9697599,1.716845
94.34978,83.93326,-0.8602384,0.9697599,1.716845
94.40088,89.14634,-0.9355435,0.9699246,1.716845
94.45058,132.2497,-0.933579,0.9699246,1.716845
94.50021,141.7859,-0.9191728,0.9697599,1.716845
94.54993,117.6276,-0.8746446,0.9697599,1.716845
94.60027,115.5933,-0.8039234,0.9697599,1.723305
94.6512,112.1602,-0.7417148,0.9697599,1.716845
94.70052,109.9987,-0.5904499,0.9699246,1.723305
94.74981,109.4901,-0.4758554,0.9697599,1.716845
94.80076,110.1259,-0.4372206,0.9697599,1.716845
94.84995,95.37663,-0.4332916,0.9699246,1.716845
94.90185,92.19792,-0.4516267,0.9699246,1.716845
94.95029,91.30788,-0.477165,0.9699246,1.716845
95.00027,89.40065,-0.4679974,0.9699246,1.716845
95.05029,86.34908,-0.4738908,0.9699246,1.716845
95.10033,85.20473,-0.4817488,0.9697599,1.716845
95.15102,80.88168,-0.4476978,0.9699246,1.710386
95.19978,78.97446,-0.4398399,0.9699246,1.716845
95.25069,93.46941,-0.4562105,0.9697599,1.716845
95.3001,143.9474,-0.2604174,0.9699246,1.716845
95.34985,117.2462,0.2241541,0.9699246,1.710386
95.40092,105.4214,0.533887,0.9699246,1.716845
95.45084,103.5141,0.6452076,0.9697599,1.716845
95.50085,102.2427,0.6753296,0.9699246,1.716845
95.55067,104.7856,0.6412786,0.9699246,1.716845
95.60065,107.4557,0.5437095,0.9699246,1.710386
95.65185,94.86804,0.3459519,0.9697599,1.716845
95.70042,91.56216,0.1973063,0.9699246,1.710386
95.7498,87.11198,0.07747302,0.9697599,1.710386
95.80064,84.44184,-0.1333811,0.9699246,1.710386
95.84967,83.42466,-0.4476978,0.9699246,1.710386
95.9018,82.91606,-0.4038244,0.9699246,1.716845
95.95006,80.50024,-0.3776314,0.9699246,1.710386
95.9999,95.63092,-0.3606059,0.9697599,1.710386
96.05054,138.7343,-0.359951,0.9699246,1.710386
96.10027,123.4765,-0.3547124,0.9699246,1.716845
96.15181,109.7444,-0.3507835,0.9699246,1.710386
96.20009,98.42819,-0.3560221,0.9699246,1.710386
96.24992,97.02956,-0.3560221,0.9697599,1.710386
96.30071,102.6241,-0.3226259,0.9699246,1.710386
96.35056,105.93,-0.3213163,0.9699246,1.710386
96.40182,104.277,-0.329829,0.9697599,1.710386
96.45035,88.5106,-0.3363773,0.9699246,1.710386
96.50033,83.80611,-0.3363773,0.9697599,1.710386
96.55045,84.0604,-0.3317935,0.9699246,1.710386
96.60042,81.00883,-0.3239356,0.9697599,1.710386
96.65096,81.13599,-0.3252452,0.9699246,1.710386
96.70081,79.10161,-0.3396514,0.9697599,1.710386
96.75053,75.16,-0.428053,0.9699246,1.710386
96.80068,85.96764,-0.4791295,0.9697599,1.703927
96.8503,129.5796,-0.4745457,0.9699246,1.710386
96.90152,133.7755,-0.4725812,0.9699246,1.710386
96.94981,108.7272,-0.4673426,0.9697599,1.710386
97.00077,103.1327,-0.4607943,0.9699246,1.710386
97.05009,101.2255,-0.4601395,0.9699246,1.703927
97.09996,102.3698,-0.4594847,0.9699246,1.703927
97.15096,105.4214,-0.4562105,0.9697599,1.703927
97.1997,105.4214,-0.4555557,0.9697599,1.703927
97.25014,88.38345,-0.4653781,0.9697599,1.703927
97.29984,86.22193,-0.473236,0.9699246,1.703927
97.35056,84.3147,-0.488297,0.9699246,1.703927
97.40183,82.78893,-0.4902615,0.9699246,1.703927
97.45084,80.62739,-0.5112159,0.9699246,1.703927
97.5005,79.22876,-0.6120592,0.9697599,1.703927
97.55004,75.03284,-0.8412485,0.9697599,1.703927
97.59984,89.90925,-0.9276856,0.9697599,1.703927
97.6517,149.0334,-0.9191728,0.9697599,1.703927
97.70084,148.7791,-0.9073859,0.9697599,1.703927
97.74992,105.4214,-0.9060763,0.9697599,1.703927
97.80077,102.7513,-0.9008377,0.9697599,1.703927
97.85044,101.9884,-0.8942894,0.9697599,1.703927
97.90119,101.9884,-0.8811929,0.9697599,1.703927
97.95091,104.4042,-0.8536902,0.9697599,1.697468
98.00066,94.61374,-0.8445226,0.9697599,1.703927
98.05017,87.23911,-0.8327357,0.9699246,1.697468
98.1009,84.3147,-0.7927913,0.9699246,1.703927
98.15096,80.88168,-0.7417148,0.9699246,1.703927
98.20084,79.86449,-0.6683743,0.9699246,1.703927
98.25054,77.57583,-0.5478862,0.9697599,1.703927
98.30054,74.39711,-0.5341349,0.9699246,1.703927
98.35016,89.78209,-0.5085966,0.9697599,1.697468
98.40104,104.277,-0.4359109,0.9697599,1.703927
98.45051,137.4628,-0.4359109,0.9697599,1.697468
98.50055,106.9472,-0.4437689,0.9697599,1.697468
98.55033,97.15671,-0.4712715,0.9697599,1.703927
98.59991,95.88522,-0.4503171,0.9697599,1.697468
98.65155,97.15671,-0.473236,0.9697599,1.703927
98.70015,100.5897,-0.4804391,0.9699246,1.697468
98.75084,101.7341,-0.4483526,0.9699246,1.697468
98.7998,89.90925,-0.1785641,0.9697599,1.697468
98.85069,85.84048,0.2287379,0.9697599,1.697468
98.90174,80.88168,0.526684,0.9697599,1.697468
98.95001,79.73734,0.6858068,0.9697599,1.697468
99.00016,78.84731,0.7539088,0.9699246,1.697468
99.05066,77.57583,0.7447412,0.9699246,1.697468
99.10052,81.00883,0.7480153,0.9697599,1.697468
99.15164,142.2945,0.7525991,0.9699246,1.697468
99.19995,136.4456,0.7381929,0.9697599,1.697468
99.25001,105.6757,0.7106903,0.9699246,1.697468
99.30051,92.7065,0.6556848,0.9697599,1.697468
99.35004,91.43503,0.5391257,0.9699246,1.697468
99.40106,96.64812,0.3479163,0.9697599,1.697468
99.45084,101.2255,0.03032552,0.9699246,1.697468
99.50015,103.1327,-0.4123372,0.9697599,1.697468
99.55015,86.60338,-0.4097179,0.9699246,1.691009
99.60015,82.40748,-0.3959665,0.9699246,1.697468
99.65102,81.89888,-0.3743572,0.9699246,1.697468
99.70016,81.51743,-0.3664993,0.9697599,1.697468
99.75003,78.84731,-0.3651897,0.9699246,1.697468
99.80002,78.08442,-0.3370321,0.9697599,1.691009
99.85062,94.48659,-0.3455448,0.9699246,1.697468
99.90145,137.59,-0.3586414,0.9697599,1.697468
99.95015,124.3665,-0.3442352,0.9697599,1.691009
100.0005,106.5657,-0.3350677,0.9695953,1.691009
100.0502,96.77527,-0.3501287,0.9697599,1.691009
100.1007,96.39381,-0.3520931,0.9697599,1.691009
100.1519,103.6413,-0.3494738,0.9697599,1.691009
100.2,106.1843,-0.3737024,0.9697599,1.691009
100.2509,92.07076,-0.3861441,0.9699246,1.691009
100.3006,87.74771,-0.4143017,0.9699246,1.691009
100.3506,82.78893,-0.4254337,0.9699246,1.691009
100.4019,81.39028,-0.4385302,0.9697599,1.691009
100.4503,80.50024,-0.5131804,0.9697599,1.691009
100.5004,80.24594,-0.7325473,0.9699246,1.691009
100.5498,90.67213,-0.8766091,0.9697599,1.691009
100.5998,146.999,-0.8726801,0.9699246,1.691009
100.6518,129.8339,-0.8589288,0.9699246,1.691009
100.7003,118.2634,-0.8157102,0.9697599,1.68455
100.7503,103.8956,-0.7384407,0.9697599,1.691009
100.8004,103.6413,-0.6814708,0.9697599,1.691009
100.8502,103.1327,-0.5904499,0.9699246,1.691009
100.9019,105.4214,-0.4444237,0.9697599,1.691009
100.9504,97.79247,-0.4051341,0.9697599,1.691009
101.0009,92.57936,-0.4051341,0.9697599,1.691009
101.0501,87.87486,-0.4247788,0.9697599,1.68455
101.0997,85.84048,-0.4444237,0.9699246,1.68455
101.1518,84.82329,-0.4228144,0.9697599,1.691009
101.2001,82.15317,-0.4215047,0.9699246,1.691009
101.2501,90.54498,-0.4313271,0.9699246,1.68455
101.3001,103.387,-0.4588298,0.9697599,1.691009
101.3497,136.8271,-0.4666878,0.9699246,1.691009
101.4011,114.5761,-0.4463881,0.9697599,1.691009
101.4507,105.93,-0.2086861,0.9697599,1.691009
101.5,103.0055,0.3439874,0.9697599,1.68455
101.5506,104.1499,0.6936647,0.9697599,1.68455
101.6003,104.7856,0.7892694,0.9697599,1.68455
101.6508,108.9815,0.8796355,0.9697599,1.68455
101.7005,95.50377,0.9654177,0.9697599,1.68455
101.7507,92.7065,1.045307,0.9697599,1.68455
101.8006,89.14634,1.068226,0.9697599,1.68455
101.8505,88.7649,1.075429,0.9699246,1.68455
101.9012,86.98483,1.067571,0.9699246,1.68455
101.95,86.60338,1.049235,0.9697599,1.68455
101.9999,132.6312,1.032865,0.9697599,1.68455
102.0507,146.8718,0.9883366,0.9697599,1.68455
102.1001,122.205,0.9804788,0.9699246,1.68455
102.1517,107.2015,0.9346408,0.9699246,1.68455
102.2003,103.387,0.8442748,0.9699246,1.68455
102.2501,107.0743,0.8004014,0.9699246,1.68455
102.3001,111.906,0.7047968,0.9699246,1.68455
102.3507,110.3802,0.3714901,0.9699246,1.68455
102.4021,96.01237,-0.1425487,0.9697599,1.68455
102.45,94.35944,-0.4260885,0.9697599,1.67809
102.5008,90.29069,-0.4070986,0.9697599,1.67809
102.5505,88.7649,-0.4018599,0.9697599,1.67809
102.6005,87.49342,-0.3723927,0.9697599,1.67809
102.6517,90.29069,-0.3664993,0.9697599,1.68455
102.7003,98.55534,-0.3317935,0.9697599,1.68455
102.7498,138.48,-0.3363773,0.9697599,1.68455
102.8006,129.8339,-0.337687,0.9697599,1.68455
102.8505,115.4661,-0.3350677,0.9699246,1.68455
102.9012,113.3046,-0.3383418,0.9699246,1.68455
102.9508,111.7788,-0.34489,0.9697599,1.67809
103.0008,112.9231,-0.3795958,0.9697599,1.68455
103.0508,114.0675,-0.4038244,0.9697599,1.67809
103.1004,100.7169,-0.4313271,0.9699246,1.67809
103.1513,97.41101,-0.4660329,0.9699246,1.68455
103.1999,93.978,-0.4863325,0.9697599,1.67809
103.2498,92.45221,-0.5511603,0.9699246,1.67809
103.3003,91.18073,-0.5812824,0.9699246,1.67809
103.3501,88.63776,-0.8045782,0.9697599,1.67809
103.4012,94.86804,-0.9545335,0.9699246,1.67809
103.45,121.4421,-0.9388176,0.9697599,1.67809
103.5,141.1501,-0.9316145,0.9697599,1.67809
103.5498,123.9851,-0.9198276,0.9699246,1.67809
103.6006,122.8407,-0.9073859,0.9699246,1.67809
103.651,121.1878,-0.9001828,0.9697599,1.67809
103.6998,119.1534,-0.8955991,0.9699246,1.67809
103.7503,116.8647,-0.8923249,0.9697599,1.67809
103.8003,114.9575,-0.8857767,0.9699246,1.67809
103.8502,104.7856,-0.8811929,0.9699246,1.671631
103.9013,100.4626,-0.8772639,0.9697599,1.671631
103.9498,96.77527,-0.8576192,0.9697599,1.671631
104,93.59654,-0.7941009,0.9699246,1.67809
104.0503,91.18073,-0.7665982,0.9699246,1.67809
104.1003,89.2735,-0.7024252,0.9697599,1.671631
104.151,85.96764,-0.6716484,0.9699246,1.67809
104.2005,94.35944,-0.6533133,0.9699246,1.67809
104.2505,148.5248,-0.4928808,0.9699246,1.671631
104.3007,126.528,-0.424124,0.9699246,1.671631
104.3498,121.1878,-0.4365658,0.9697599,1.671631
104.401,117.5005,-0.443114,0.9697599,1.671631
104.4508,115.4661,-0.4346013,0.9699246,1.671631
104.5003,112.4145,-0.4411495,0.9697599,1.67809
104.5499,112.4145,-0.4516267,0.9697599,1.671631
104.5998,111.2702,-0.4575202,0.9697599,1.671631
104.652,100.0811,-0.4444237,0.9697599,1.671631
104.7004,98.1739,-0.3409611,0.9697599,1.671631
104.7505,95.24948,0.1167626,0.9697599,1.671631
104.8007,91.94361,0.4657851,0.9697599,1.671631
104.85,90.16354,0.6308014,0.9699246,1.671631
104.9017,88.63776,0.7565281,0.9697599,1.671631
104.95,84.44184,0.7414671,0.9697599,1.671631
105.0001,83.55181,0.7205126,0.9697599,1.671631
105.051,92.32506,0.6995582,0.9699246,1.671631
105.1005,142.2945,0.6353852,0.9699246,1.671631
105.1519,115.2118,0.5699025,0.9697599,1.671631
105.2007,109.363,0.4088152,0.9697599,1.671631
105.2505,107.4557,0.1187271,0.9697599,1.671631
105.3007,105.4214,-0.1517162,0.9699246,1.665172
105.3503,109.1087,-0.3592962,0.9697599,1.671631
105.4013,109.363,-0.3998955,0.9699246,1.671631
105.4501,106.5657,-0.3953117,0.9699246,1.665172
105.5006,94.61374,-0.3782862,0.9699246,1.671631
105.5507,90.41783,-0.3691186,0.9697599,1.671631
105.6007,88.5106,-0.3612607,0.9697599,1.671631
105.6519,87.23911,-0.3547124,0.9697599,1.671631
105.7004,86.47623,-0.3527479,0.9699246,1.665172
105.75,82.91606,-0.3422708,0.9697599,1.665172
105.8004,80.50024,-0.34489,0.9699246,1.665172
105.8502,92.32506,-0.3455448,0.9697599,1.665172
105.9011,120.9335,-0.3416159,0.9697599,1.665172
105.9506,136.0642,-0.3612607,0.9699246,1.671631
106.0005,115.7204,-0.3592962,0.9699246,1.665172
106.0504,111.0159,-0.3619155,0.9697599,1.665172
106.1001,108.9815,-0.3782862,0.9697599,1.665172
106.1514,107.4557,-0.4038244,0.9697599,1.671631
106.2008,107.5829,-0.4018599,0.9697599,1.665172
106.2505,107.9643,-0.416921,0.9699246,1.665172
106.3002,94.86804,-0.4215047,0.9697599,1.665172
106.35,91.05358,-0.4516267,0.9697599,1.665172
106.4016,88.89205,-0.4607943,0.9699246,1.665172
106.4499,86.85767,-0.4830584,0.9699246,1.665172
106.5009,85.33189,-0.5013936,0.9697599,1.665172
106.5509,83.42466,-0.5079418,0.9699246,1.665172
106.6003,81.13599,-0.5262769,0.9697599,1.665172
106.6515,78.33871,-0.6762322,0.9697599,1.665172
106.7004,76.43149,-0.790172,0.9699246,1.665172
106.7503,76.17719,-0.7790399,0.9699246,1.665172
106.8007,140.1329,-0.7796948,0.9699246,1.665172
106.8503,118.1362,-0.7659434,0.9699246,1.665172
106.9015,113.3046,-0.744989,0.9697599,1.665172
106.9499,109.1087,-0.6578971,0.9697599,1.665172
107.0008,107.5829,-0.5878306,0.9697599,1.665172
107.0503,107.2015,-0.4941905,0.9699246,1.658713
107.0998,106.5657,-0.4064437,0.9699246,1.665172
107.1512,94.48659,-0.4110275,0.9697599,1.665172
107.1999,90.29069,-0.4162661,0.9699246,1.658713
107.2499,88.38345,-0.4424592,0.9697599,1.658713
107.3009,86.34908,-0.431982,0.9699246,1.665172
107.3502,84.0604,-0.4457333,0.9697599,1.658713
107.4013,81.89888,-0.4634137,0.9697599,1.665172
107.4505,81.39028,-0.458175,0.9699246,1.665172
107.5,76.55863,-0.4404947,0.9697599,1.658713
107.55,75.79574,-0.4215047,0.9699246,1.658713
107.6005,111.5245,-0.3069101,0.9697599,1.658713
107.6513,137.59,0.2339765,0.9699246,1.665172
107.7,127.1638,0.7067612,0.9697599,1.658713
107.75,100.5897,0.8141528,0.9697599,1.658713
107.8,100.9712,0.922854,0.9699246,1.658713
107.8501,99.82683,1.043342,0.9697599,1.658713
107.9009,102.8784,1.0715,0.9697599,1.658713
107.9502,103.7684,1.08918,0.9699246,1.652254
108.0002,90.29069,1.120612,0.9697599,1.658713
108.0503,87.87486,1.128469,0.9699246,1.658713
108.1002,84.3147,1.156627,0.9699246,1.658713
108.1515,83.04321,1.204429,0.9699246,1.658713
108.2007,80.75454,1.197226,0.9697599,1.658713
108.2507,80.62739,1.155317,0.9699246,1.658713
108.3,79.10161,1.131089,0.9699246,1.658713
108.351,78.21156,1.080012,0.9697599,1.658713
108.4013,85.96764,1.039413,0.9699246,1.658713
108.4509,135.3013,0.9274378,0.9697599,1.658713
108.5003,112.0331,0.8835644,0.9697599,1.658713
108.5501,97.28386,0.7846856,0.9697599,1.658713
108.6007,93.978,0.5004909,0.9697599,1.658713
108.6515,94.86804,0.2811241,0.9697599,1.658713
108.7005,98.55534,-0.1425487,0.9699246,1.658713
108.7502,101.4798,-0.4411495,0.9699246,1.658713
108.8003,88.63776,-0.4313271,0.9697599,1.658713
108.8502,83.93326,-0.4070986,0.9697599,1.658713
108.9015,81.13599,-0.3933472,0.9697599,1.658713
108.9502,79.99165,-0.3763217,0.9697599,1.652254
108.9999,79.3559,-0.3691186,0.9697599,1.658713
109.0502,77.32152,-0.3527479,0.9697599,1.658713
109.101,74.77856,-0.3606059,0.9697599,1.658713
109.1511,105.6757,-0.3782862,0.9697599,1.658713
109.2006,149.2876,-0.3959665,0.9697599,1.658713
109.2503,127.0366,-0.4300175,0.9697599,1.658713
109.3008,110.3802,-0.424124,0.9699246,1.658713
109.35,105.6757,-0.4535912,0.9699246,1.658713
109.4014,101.7341,-0.4804391,0.9699246,1.658713
109.4511,101.7341,-0.4896067,0.9699246,1.658713
109.5008,104.5313,-0.496155,0.9697599,1.658713
109.5504,98.80965,-0.5426476,0.9699246,1.652254
109.601,90.16354,-0.5786631,0.9697599,1.652254
109.651,86.22193,-0.5819372,0.9697599,1.652254
109.7009,85.45904,-0.6100947,0.9697599,1.652254
109.7506,82.40748,-0.6369426,0.9699246,1.652254
109.8011,81.26313,-0.7050446,0.9699246,1.658713
109.8505,77.70296,-0.9165535,0.9697599,1.652254
109.9016,110.3802,-0.9872748,0.9699246,1.652254
109.9502,126.4009,-1.006265,0.9697599,1.652254
110.0007,153.3564,-1.003645,0.9699246,1.652254
110.05,111.6517,-0.9931682,0.9699246,1.652254
110.1,108.8544,-0.9925134,0.9697599,1.652254
110.152,106.82,-0.9754879,0.9697599,1.652254
110.2002,106.1843,-0.9361983,0.9697599,1.652254
110.2505,107.71,-0.8949442,0.9697599,1.652254
110.3,108.0915,-0.839284,0.9697599,1.652254
110.35,94.10515,-0.7764207,0.9697599,1.645795
110.4021,88.5106,-0.5917596,0.9697599,1.652254
110.4506,86.85767,-0.4699619,0.9699246,1.652254
110.5001,85.20473,-0.4300175,0.9697599,1.652254
110.55,83.67896,-0.4175758,0.9699246,1.652254
110.6,79.61021,-0.4070986,0.9699246,1.652254
110.651,90.92643,-0.4293627,0.9697599,1.652254
110.701,104.5313,-0.4450785,0.9699246,1.652254
110.7505,137.59,-0.4549009,0.9699246,1.652254
110.8005,114.0675,-0.4660329,0.9697599,1.652254
110.8503,107.0743,-0.4450785,0.9697599,1.652254
110.9012,104.5313,-0.4463881,0.9697599,1.652254
110.95,105.1671,-0.03319265,0.9697599,1.652254
111.0003,107.0743,0.5011457,0.9697599,1.652254
111.0508,106.82,0.6930099,0.9697599,1.645795
111.1002,95.37663,0.7761729,0.9697599,1.652254
111.1515,90.29069,0.8154625,0.9699246,1.652254
111.2,87.23911,0.8200462,0.9699246,1.645795
111.2507,86.47623,0.8062949,0.9699246,1.652254
111.3001,85.07759,0.7617667,0.9697599,1.652254
111.351,81.64457,0.5260292,0.9699246,1.652254
111.401,92.32506,-0.1517162,0.9697599,1.645795
111.451,92.32506,-0.4516267,0.9697599,1.652254
111.5007,124.4937,-0.4359109,0.9697599,1.645795
111.5502,107.5829,-0.4149565,0.9697599,1.645795
111.6004,100.844,-0.3998955,0.9697599,1.652254
111.651,100.0811,-0.397931,0.9697599,1.645795
111.7005,99.19109,-0.3959665,0.9697599,1.652254
111.7505,107.5829,-0.3802507,0.9697599,1.645795
111.8,107.4557,-0.36388,0.9697599,1.645795
111.851,92.45221,-0.3527479,0.9697599,1.645795
111.902,87.49342,-0.3245904,0.9697599,1.652254
111.9508,85.96764,-0.3232808,0.9697599,1.645795
112.001,84.69615,-0.3514383,0.9697599,1.645795
112.0508,83.55181,-0.3592962,0.9697599,1.645795
112.1007,81.00883,-0.412992,0.9697599,1.645795
112.152,78.72016,-0.5419928,0.9699246,1.652254
112.2009,112.5417,-0.5714599,0.9697599,1.645795
112.2501,152.975,-0.616643,0.9697599,1.645795
112.3001,131.3597,-0.6258106,0.9699246,1.645795
112.3509,111.0159,-0.6107495,0.9697599,1.645795
112.4017,107.8372,-0.605511,0.9697599,1.645795
112.4503,107.2015,-0.6048561,0.9699246,1.645795
112.5002,106.6929,-0.5989627,0.9697599,1.645795
112.5506,106.9472,-0.597653,0.9697599,1.645795
112.6006,103.8956,-0.597653,0.9697599,1.645795
112.6521,92.07076,-0.5983078,0.9697599,1.645795
112.7001,91.56216,-0.6002723,0.9697599,1.645795
112.7502,86.73053,-0.6061658,0.9699246,1.645795
112.801,85.84048,-0.6107495,0.9699246,1.645795
112.8507,84.82329,-0.6179526,0.9697599,1.645795
112.9021,79.48306,-0.744989,0.9700893,1.645795
112.9504,80.24594,-0.8635126,0.9697599,1.645795
113.0003,108.7272,-0.8910152,0.9697599,1.639335
113.051,139.1158,-0.8772639,0.9699246,1.639335
113.1003,117.6276,-0.8726801,0.9697599,1.645795
113.1512,109.1087,-0.8536902,0.9697599,1.645795
113.2007,105.5485,-0.8477967,0.9697599,1.639335
113.2504,104.7856,-0.7947558,0.9697599,1.645795
113.3001,105.93,-0.8032685,0.9699246,1.639335
113.3504,106.5657,-0.7698724,0.9697599,1.639335
113.4013,95.24948,-0.7332021,0.9697599,1.645795
113.4507,91.43503,-0.6389071,0.9697599,1.639335
113.5005,87.36626,-0.5085966,0.9697599,1.639335
113.5504,85.20473,-0.4208499,0.9697599,1.639335
113.6002,84.0604,-0.4143017,0.9697599,1.639335
113.6515,82.53461,-0.4051341,0.9697599,1.639335
113.7,79.73734,-0.4143017,0.9697599,1.639335
113.7507,77.57583,-0.4195402,0.9699246,1.639335
113.8004,123.9851,-0.4483526,0.9697599,1.639335
113.8499,146.6175,-0.4483526,0.9697599,1.645795
113.9019,117.2462,-0.4562105,0.9697599,1.645795
113.9507,103.6413,-0.4555557,0.9697599,1.645795
114.0004,102.6241,-0.4031696,0.9697599,1.639335
114.0505,102.2427,0.1789711,0.9697599,1.639335
114.1003,103.2598,0.5882377,0.9699246,1.639335
114.1515,105.5485,0.7676601,0.9699246,1.645795
114.201,93.34225,0.8606455,0.9697599,1.639335
114.2511,89.90925,0.9444633,0.9697599,1.639335
114.301,86.98483,1.024352,0.9697599,1.639335
114.351,85.58618,1.0715,0.9697599,1.639335
114.401,84.69615,1.076738,0.9697599,1.639335
114.4509,82.91606,1.057748,0.9697599,1.639335
114.5001,80.88168,0.9667274,0.9697599,1.639335
114.5505,82.40748,0.8776709,0.9699246,1.639335
114.6005,137.9714,0.8076046,0.9697599,1.639335
114.6522,124.8751,0.7106903,0.9697599,1.639335
114.7004,113.8132,0.6530655,0.9697599,1.639335
114.7502,97.15671,0.4035766,0.9699246,1.639335
114.8008,96.26666,0.03425448,0.9697599,1.639335
114.8508,101.0983,-0.1229039,0.9697599,1.639335
114.9013,103.387,-0.4182306,0.9699246,1.639335
114.9501,103.1327,-0.4634137,0.9697599,1.639335
115.0004,88.38345,-0.4378754,0.9697599,1.639335
115.0502,85.58618,-0.412992,0.9697599,1.639335
115.1003,84.0604,-0.3946568,0.9697599,1.639335
115.1516,82.53461,-0.3972761,0.9697599,1.639335
115.2004,81.39028,-0.3769765,0.9697599,1.639335
115.25,80.50024,-0.3625704,0.9697599,1.639335
115.3004,76.68578,-0.3579866,0.9699246,1.639335
115.3501,79.3559,-0.3723927,0.9697599,1.632876
115.4013,141.2773,-0.3763217,0.9697599,1.632876
115.4501,115.9747,-0.4084082,0.9697599,1.639335
115.5009,105.93,-0.412992,0.9699246,1.632876
115.551,103.387,-0.4234692,0.9697599,1.639335
115.6011,102.7513,-0.4267433,0.9697599,1.639335
115.6511,103.6413,-0.443114,0.9697599,1.639335
115.7002,105.0399,-0.4457333,0.9697599,1.632876
115.7503,96.90242,-0.4562105,0.9697599,1.639335
115.8003,89.65494,-0.4843681,0.9697599,1.632876
115.8509,86.34908,-0.5131804,0.9695953,1.639335
115.9019,83.93326,-0.5230028,0.9699246,1.632876
115.9506,82.02603,-0.5295511,0.9697599,1.639335
116.0006,81.26313,-0.5622924,0.9697599,1.632876
116.0506,79.10161,-0.6114044,0.9699246,1.632876
116.1001,75.28716,-0.8497612,0.9697599,1.632876
116.152,78.08442,-0.9342338,0.9697599,1.639335
116.2003,129.7068,-0.9388176,0.9697599,1.632876
116.2504,126.7823,-0.9466755,0.9697599,1.632876
116.3012,111.0159,-0.9434013,0.9697599,1.632876
116.3508,105.5485,-0.925721,0.9697599,1.632876
116.4012,104.5313,-0.914589,0.9699246,1.632876
116.45,103.7684,-0.9100053,0.9697599,1.632876
116.5005,104.9128,-0.899528,0.9697599,1.632876
116.5503,104.9128,-0.8969087,0.9699246,1.632876
116.6008,91.94361,-0.8890508,0.9697599,1.632876
116.6516,87.36626,-0.8877411,0.9697599,1.632876
116.7006,86.34908,-0.884467,0.9699246,1.632876
116.7512,84.18755,-0.8818477,0.9699246,1.632876
116.8003,81.89888,-0.8792284,0.9697599,1.632876
116.8501,79.61021,-0.8687512,0.9699246,1.632876
116.9018,76.05004,-0.8713705,0.9697599,1.632876
116.9502,77.83012,-0.869406,0.9697599,1.632876
117.0001,137.0814,-0.839284,0.9697599,1.632876
117.0511,141.4044,-0.7980299,0.9697599,1.632876
117.1004,118.3905,-0.7043898,0.9697599,1.632876
117.1522,105.6757,-0.4915712,0.9697599,1.632876
117.2004,104.0227,-0.4143017,0.9697599,1.632876
117.2508,100.9712,-0.397931,0.9697599,1.632876
117.3005,102.1155,-0.412992,0.9697599,1.632876
117.35,104.0227,-0.4293627,0.9699246,1.632876
117.4015,91.18073,-0.4372206,0.9697599,1.632876
117.4502,88.7649,-0.4594847,0.9699246,1.632876
117.5008,85.45904,-0.4647233,0.9697599,1.626417
117.5503,83.17036,-0.4588298,0.9697599,1.632876
117.6003,82.15317,-0.4444237,0.9697599,1.632876
117.6518,80.88168,-0.1733255,0.9697599,1.626417
117.7004,79.61021,-0.1615386,0.9699246,1.632876
117.7512,75.54144,-0.1536807,0.9697599,1.632876
117.8011,81.13599,0.06306684,0.9697599,1.632876
117.8502,127.1638,0.4710237,0.9697599,1.632876
117.9022,115.7204,0.6962841,0.9699246,1.632876
117.9503,100.9712,0.7525991,0.9697599,1.632876
118.0012,97.02956,0.7702794,0.9697599,1.632876
118.0504,96.39381,0.749325,0.9699246,1.626417
118.1002,102.8784,0.7034872,0.9697599,1.632876
118.1522,103.387,0.6039535,0.9699246,1.626417
118.2009,97.28386,0.3996476,0.9699246,1.626417
118.2505,86.85767,0.002822811,0.9699246,1.626417
118.3005,85.20473,-0.3730476,0.9697599,1.632876
118.3502,82.91606,-0.4391851,0.9697599,1.632876
118.4012,82.02603,-0.4051341,0.9697599,1.632876
118.4505,80.11879,-0.3992406,0.9699246,1.632876
118.5007,77.70296,-0.3737024,0.9697599,1.626417
118.5509,78.59301,-0.3501287,0.9697599,1.626417
118.6008,125.1294,-0.3331032,0.9699246,1.626417
118.6519,134.157,-0.3226259,0.9697599,1.632876
118.7007,112.2874,-0.3285194,0.9699246,1.626417
118.7507,99.19109,-0.3547124,0.9697599,1.626417
118.8005,97.15671,-0.3520931,0.9699246,1.626417
118.8505,97.28386,-0.3481642,0.9699246,1.632876
118.9017,100.844,-0.3403063,0.9699246,1.626417
118.9512,102.3698,-0.3606059,0.9697599,1.626417
119.0002,88.25631,-0.3815603,0.9699246,1.626417
119.0507,84.44184,-0.38287,0.9697599,1.626417
119.1007,80.88168,-0.4064437,0.9697599,1.626417
119.1519,80.24594,-0.4234692,0.9699246,1.626417
119.2005,78.97446,-0.4398399,0.9697599,1.626417
119.2505,76.94007,-0.5472314,0.9699246,1.626417
119.3001,76.17719,-0.7070091,0.9697599,1.632876
119.3509,102.6241,-0.7980299,0.9699246,1.626417
119.4019,134.4113,-0.7921365,0.9697599,1.626417
119.4502,115.7204,-0.8078523,0.9699246,1.626417
119.5012,105.1671,-0.7954106,0.9699246,1.626417
119.5514,102.1155,-0.7803496,0.9699246,1.626417
119.6009,100.7169,-0.7705272,0.9697599,1.626417
119.6522,101.8612,-0.767253,0.9699246,1.626417
119.701,104.277,-0.7626693,0.9697599,1.626417
119.7502,96.52097,-0.7535017,0.9697599,1.626417
119.8014,88.12916,-0.7541566,0.9695953,1.626417
119.8511,85.07759,-0.7541566,0.9697599,1.626417
119.9011,83.55181,-0.7495728,0.9697599,1.626417
119.9511,81.51743,-0.7489179,0.9697599,1.626417
120.0011,77.70296,-0.7659434,0.9697599,1.619958
120.0522,76.94007,-0.8825025,0.9697599,1.619958
120.1005,82.02603,-0.9132794,0.9697599,1.626417
120.1513,129.8339,-0.899528,0.9699246,1.626417
120.2009,116.7376,-0.8877411,0.9697599,1.626417
120.2509,106.6929,-0.8144006,0.9697599,1.626417
120.302,103.387,-0.7770755,0.9700893,1.626417
120.3511,102.3698,-0.7161766,0.9699246,1.626417
120.402,103.1327,-0.5858661,0.9697599,1.626417
120.4504,104.6585,-0.462104,0.9697599,1.619958
120.5003,104.6585,-0.4012051,0.9697599,1.626417
120.5519,92.07076,-0.4064437,0.9699246,1.626417
120.6004,88.7649,-0.409063,0.9697599,1.619958
120.6515,87.11198,-0.4346013,0.9697599,1.626417
120.7,85.84048,-0.4365658,0.9597127,1.619958
120.7506,84.569,-0.4503171,0.9598774,1.619958
120.8016,81.26313,-0.4509719,0.9598774,1.619958
120.8503,83.17036,-0.4490074,0.9598774,1.626417
120.9012,113.1774,-0.4549009,0.9597127,1.626417
120.9509,134.6656,-0.4483526,0.9598774,1.626417
121.0008,116.229,-0.2794074,0.9598774,1.626417
121.0518,103.6413,0.2156414,0.9598774,1.619958
121.1005,103.1327,0.6203242,0.9598774,1.619958
121.1511,103.2598,0.7650408,0.9598774,1.619958
121.2002,106.6929,0.8004014,0.9597127,1.619958
121.2512,107.3286,0.8141528,0.9598774,1.619958
121.302,94.48659,0.8056401,0.9598774,1.626417
121.3506,91.18073,0.7892694,0.9598774,1.619958
121.4019,89.65494,0.753254,0.9598774,1.619958
121.4512,88.25631,0.6838424,0.9598774,1.619958
121.5012,85.84048,0.2130221,0.9597127,1.619958
121.5523,84.69615,-0.4928808,0.9600421,1.619958
121.6005,93.08795,-0.4064437,0.9598774,1.626417
121.6516,131.9954,-0.4051341,0.9597127,1.619958
121.7008,140.6415,-0.4012051,0.9597127,1.626417
121.7504,108.7272,-0.3966213,0.9598774,1.619958
121.8012,101.2255,-0.3907279,0.9597127,1.619958
121.8509,101.4798,-0.3809055,0.9598774,1.619958
121.9019,106.9472,-0.367809,0.9600421,1.619958
121.9506,107.4557,-0.3586414,0.9597127,1.619958
122.0005,108.7272,-0.3435804,0.9598774,1.619958
122.0519,93.34225,-0.3429256,0.9598774,1.619958
122.1002,90.16354,-0.3193518,0.9598774,1.619958
122.1514,89.40065,-0.3101842,0.9598774,1.619958
122.2013,86.47623,-0.3206615,0.9598774,1.619958
122.2506,85.71333,-0.3389966,0.9597127,1.619958
122.3023,82.40748,-0.3848345,0.9598774,1.619958
122.3512,91.18073,-0.4653781,0.9598774,1.613499
122.4022,118.5177,-0.5046677,0.9598774,1.619958
122.4504,136.0642,-0.5302059,0.9598774,1.613499
122.5007,117.2462,-0.5328252,0.9598774,1.619958
122.5519,111.7788,-0.5249673,0.9598774,1.619958
122.6003,111.3974,-0.5269318,0.9598774,1.619958
122.6514,109.8716,-0.5269318,0.9598774,1.619958
122.7001,109.6173,-0.5282415,0.9598774,1.619958
122.7512,109.8716,-0.5570538,0.9598774,1.619958
122.8014,99.19109,-0.5642568,0.9597127,1.619958
122.8502,96.52097,-0.5786631,0.9597127,1.619958
122.9012,92.32506,-0.5937241,0.9597127,1.619958
122.951,90.41783,-0.616643,0.9598774,1.619958
123.001,88.00201,-0.6585519,0.9600421,1.619958
123.0522,87.23911,-0.7115928,0.9598774,1.619958
123.101,83.67896,-0.9368532,0.9598774,1.619958
123.1516,88.7649,-1.048828,0.9598774,1.619958
123.201,145.2189,-1.094666,0.9598774,1.613499
123.251,139.8786,-1.177174,0.9598774,1.619958
123.3019,118.6448,-1.175865,0.9598774,1.619958
123.3504,113.5589,-1.166697,0.9597127,1.613499
123.4015,112.4145,-1.160804,0.9598774,1.619958
123.4501,110.253,-1.154256,0.9597127,1.613499
123.5002,109.9987,-1.149672,0.9598774,1.613499
123.5511,111.0159,-1.145088,0.9598774,1.619958
123.6011,97.41101,-1.13592,0.9598774,1.619958
123.6511,96.26666,-1.132646,0.9597127,1.613499
123.7011,93.46941,-1.09925,0.9597127,1.619958
123.7511,90.16354,-1.039006,0.9598774,1.613499
123.8021,88.38345,-0.9964424,0.9598774,1.619958
123.851,87.23911,-0.9244114,0.9598774,1.619958
123.9023,81.64457,-0.903457,0.9598774,1.619958
123.951,86.60338,-0.8589288,0.9597127,1.613499
124.0009,134.2841,-0.6146785,0.9598774,1.613499
124.052,141.6587,-0.4391851,0.9597127,1.613499
124.1002,119.1534,-0.4005503,0.9597127,1.619958
124.1511,110.1259,-0.4156113,0.9598774,1.619958
124.2011,107.9643,-0.4306723,0.9597127,1.613499
124.2502,106.5657,-0.4346013,0.9598774,1.613499
