t_sec,abp_mmHg,resp_arbunit,spo2_unitless,scon_muS
0,1.032348,0.5646731,0.9896896,7.517174
0.05117841,0.9051962,0.9484816,0.9896896,7.523633
0.100562,0.7780523,1.090821,0.9896896,7.523633
0.1506609,1.032348,1.127042,0.9896896,7.523633
0.2006476,0.6509008,1.165168,0.989525,7.517174
0.2502974,0.9051962,1.204566,0.9898543,7.517174
0.3015262,0.9051962,1.236973,0.9896896,7.523633
0.3499644,0.9051962,1.26811,0.9898543,7.517174
0.3996386,0.9051962,1.297976,0.9898543,7.517174
0.4507681,1.032348,1.355166,0.9898543,7.517174
0.5006258,0.7780523,1.41871,0.9898543,7.517174
0.551807,0.7780523,1.430148,0.9898543,7.517174
0.6004344,1.032348,1.430784,0.9896896,7.517174
0.6506429,0.7780523,1.434597,0.9896896,7.517174
0.7005056,0.7780523,1.435232,0.9896896,7.517174
0.7504312,1.032348,1.431419,0.9898543,7.510715
0.8013998,0.9051962,1.422523,0.9898543,7.517174
0.8502956,0.9051962,1.414898,0.9896896,7.510715
0.9003432,0.6509008,1.407272,0.9896896,7.510715
0.9504346,1.032348,1.399012,0.9896896,7.517174
1.000541,0.9051962,1.339915,0.9896896,7.510715
1.051298,0.7780523,1.226806,0.9896896,7.510715
1.100779,0.7780523,1.198211,0.9896896,7.510715
1.150516,0.7780523,1.170887,0.9896896,7.510715
1.200426,0.9051962,1.100353,0.9898543,7.510715
1.249616,1.032348,1.070487,0.9898543,7.510715
1.301127,0.6509008,0.9599196,0.9896896,7.510715
1.350483,0.9051962,0.713367,0.9898543,7.510715
1.400544,0.5237532,0.58882,0.9896896,7.510715
1.449867,0.7780523,0.5074832,0.9896896,7.504256
1.500736,0.9051962,0.4521995,0.9896896,7.504256
1.551775,1.032348,0.394374,0.9898543,7.510715
1.600633,1.032348,0.3047764,0.9898543,7.504256
1.650051,1.032348,0.2170851,0.9896896,7.504256
1.70004,0.7780523,0.1363837,0.9898543,7.504256
1.75089,0.9051962,-0.01040396,0.9898543,7.504256
1.80076,0.7780523,-0.1069916,0.9896896,7.504256
1.850286,0.6509008,-0.1438474,0.9898543,7.504256
1.900284,0.6509008,-0.1794323,0.9896896,7.504256
1.950101,0.7780523,-0.256321,0.9898543,7.504256
2.00073,0.7780523,-0.2772907,0.9896896,7.497797
2.05176,0.7780523,-0.4043795,0.9896896,7.504256
2.100514,0.6509008,-0.6388585,0.9896896,7.497797
2.149874,0.7780523,-0.7576866,0.9898543,7.497797
2.200414,0.7780523,-0.912735,0.9896896,7.497797
2.249863,0.7780523,-0.8974844,0.9896896,7.497797
2.301473,0.7780523,-0.8828691,0.9898543,7.504256
2.34972,0.7780523,-0.8993907,0.9898543,7.497797
2.400643,0.6509008,-0.9082869,0.9898543,7.497797
2.450258,0.7780523,-0.8987553,0.9898543,7.497797
2.500115,0.6509008,-0.8962135,0.9896896,7.497797
2.551286,0.6509008,-0.8860464,0.9900191,7.497797
2.600161,0.6509008,-0.8873172,0.9898543,7.497797
2.649969,0.7780523,-0.8765147,0.9896896,7.491337
2.700166,0.6509008,-0.8917654,0.9896896,7.491337
2.750126,0.7780523,-0.855545,0.9896896,7.497797
2.801234,0.6509008,-0.895578,0.9898543,7.497797
2.849721,0.6509008,-0.9819984,0.9898543,7.497797
2.899812,0.7780523,-1.130057,0.9898543,7.497797
2.949646,0.5237532,-1.208217,0.9896896,7.491337
3.000716,0.6509008,-1.208852,0.9896896,7.491337
3.050844,0.7780523,-1.172632,0.9896896,7.491337
3.101392,0.9051962,-1.168819,0.9898543,7.484879
3.150388,0.6509008,-1.173267,0.9896896,7.491337
3.200386,0.6509008,-1.161829,0.9898543,7.484879
3.250101,0.9051962,-1.129422,0.9898543,7.484879
3.301536,0.9051962,-1.016312,0.9896896,7.484879
3.351079,0.5237532,-0.7322688,0.9898543,7.484879
3.400156,0.9051962,-0.3656174,0.9898543,7.484879
3.450162,0.5237532,-0.2353513,0.9896896,7.478419
3.499671,0.6509008,-0.1177941,0.9896896,7.484879
3.550885,0.9051962,0.0785582,0.9898543,7.484879
3.601743,0.7780523,0.09889244,0.9898543,7.484879
3.649827,0.5237532,0.1179558,0.9896896,7.484879
3.700161,0.7780523,0.2094598,0.9898543,7.478419
3.750035,0.7780523,0.3314651,0.9898543,7.478419
3.801155,0.7780523,0.4979515,0.9898543,7.478419
3.851074,0.7780523,0.6174151,0.9896896,7.478419
3.899953,0.7780523,0.7508583,0.9898543,7.478419
3.949629,1.159495,0.8614258,0.9896896,7.478419
4.00067,1.413791,1.027912,0.9896896,7.478419
4.05133,0.7780523,1.073664,0.9896896,7.478419
4.101607,1.413791,1.120687,0.9896896,7.478419
4.150403,0.9051962,1.155636,0.9896896,7.47196
4.199883,0.9051962,1.156907,0.9896896,7.47196
4.249664,1.032348,1.191857,0.9898543,7.47196
4.301686,0.6509008,1.252859,0.9896896,7.47196
4.350698,0.9051962,1.279548,0.9896896,7.47196
4.40063,0.9051962,1.294799,0.9896896,7.47196
4.450358,1.286647,1.338009,0.9896896,7.47196
4.500151,0.7780523,1.388209,0.9896896,7.465501
4.551334,0.7780523,1.399647,0.9898543,7.47196
4.601525,0.7780523,1.41871,0.9896896,7.47196
4.649843,0.7780523,1.434597,0.9898543,7.465501
4.700482,0.7780523,1.435232,0.9896896,7.465501
4.750154,0.6509008,1.43269,0.9898543,7.465501
4.801381,0.6509008,1.426336,0.9896896,7.459042
4.851104,0.9051962,1.421252,0.9896896,7.465501
4.899674,0.6509008,1.400918,0.9898543,7.459042
4.94974,0.9051962,1.397105,0.9896896,7.459042
5.000074,0.7780523,1.336738,0.9896896,7.459042
5.050743,0.9051962,1.182961,0.9896896,7.465501
5.101836,0.9051962,1.1245,0.9896896,7.465501
5.149981,0.7780523,1.083831,0.9898543,7.459042
5.199835,0.7780523,1.080654,0.9896896,7.452582
5.249674,0.7780523,1.080654,0.9896896,7.452582
5.301449,0.9051962,1.049517,0.9898543,7.459042
5.350873,0.7780523,0.9999526,0.9898543,7.452582
5.399707,0.7780523,0.9211575,0.9898543,7.452582
5.450656,0.7780523,0.744504,0.9896896,7.452582
5.500392,0.7780523,0.6224986,0.9898543,7.452582
5.551394,0.9051962,0.5780174,0.9898543,7.452582
5.601006,0.7780523,0.4807945,0.9898543,7.452582
5.650644,0.9051962,0.4096248,0.9896896,7.452582
5.700109,0.7780523,0.321298,0.9896896,7.452582
5.750645,0.7780523,0.1764166,0.9898543,7.452582
5.801891,0.6509008,-0.04535344,0.9896896,7.446123
5.850821,0.7780523,-0.1495664,0.9896896,7.452582
5.900642,0.6509008,-0.1616398,0.9896896,7.446123
5.94984,0.7780523,-0.1711714,0.9898543,7.446123
6.00075,0.5237532,-0.1724423,0.9898543,7.446123
6.051748,0.6509008,-0.1775259,0.9896896,7.446123
6.101868,0.7780523,-0.2448829,0.9896896,7.446123
6.15039,0.7780523,-0.3471895,0.9898543,7.446123
6.199836,0.6509008,-0.4132757,0.9898543,7.439664
6.249805,0.6509008,-0.4469543,0.9896896,7.439664
6.300683,0.6509008,-0.4552151,0.9896896,7.439664
6.351183,0.7780523,-0.4653822,0.9900191,7.439664
6.400223,0.6509008,-0.7462486,0.9896896,7.439664
6.450099,0.7780523,-0.9800921,0.9898543,7.439664
6.500823,0.7780523,-1.099556,0.9896896,7.439664
6.551069,0.6509008,-1.087482,0.9898543,7.433205
6.601596,0.7780523,-1.030928,0.9896896,7.433205
6.650117,0.7780523,-1.042366,0.9896896,7.433205
6.699975,0.7780523,-0.9940719,0.9898543,7.426746
6.750387,0.9051962,-0.8396589,0.9896896,7.433205
6.801636,0.7780523,-0.5734077,0.9896896,7.426746
6.850734,0.7780523,-0.3738782,0.9896896,7.426746
6.900177,0.6509008,-0.2181943,0.9898543,7.426746
6.949851,0.7780523,-0.07649026,0.9896896,7.426746
6.999865,0.6509008,0.1281228,0.9896896,7.420287
7.050988,0.6509008,0.258389,0.9898543,7.426746
7.101849,0.6509008,0.3651436,0.9896896,7.420287
7.150328,0.7780523,0.4134374,0.9896896,7.426746
7.200119,0.6509008,0.4680856,0.9898543,7.420287
7.250116,0.6509008,0.5519643,0.9898543,7.413827
7.300926,0.7780523,0.7286177,0.9896896,7.420287
7.351592,0.6509008,0.961826,0.9898543,7.420287
7.40013,0.6509008,1.061591,0.9896896,7.413827
7.450054,0.6509008,1.094634,0.9898543,7.413827
7.500714,0.5237532,1.13975,0.9896896,7.413827
7.55097,0.7780523,1.196305,0.9898543,7.413827
7.601633,0.7780523,1.228077,0.9898543,7.413827
7.650378,0.7780523,1.257307,0.9898543,7.413827
7.70011,0.6509008,1.301789,0.9898543,7.413827
7.750131,0.6509008,1.386938,0.9898543,7.407369
7.801066,0.6509008,1.41871,0.9896896,7.413827
7.850866,0.6509008,1.437138,0.9896896,7.407369
7.900535,0.6509008,1.439045,0.9896896,7.407369
7.950598,0.7780523,1.437774,0.9898543,7.407369
8.000051,0.6509008,1.437138,0.9896896,7.407369
8.051857,0.6509008,1.435867,0.9896896,7.407369
8.101441,0.6509008,1.435232,0.9898543,7.407369
8.1501,0.6509008,1.423159,0.9896896,7.400909
8.199855,0.6509008,1.418075,0.9896896,7.400909
8.250083,0.6509008,1.404095,0.9896896,7.39445
8.301891,0.5237532,1.395199,0.9896896,7.400909
8.351213,0.7780523,1.39647,0.9898543,7.400909
8.399949,0.7780523,1.385032,0.9898543,7.400909
8.450834,0.6509008,1.36152,0.9896896,7.39445
8.500699,0.6509008,1.285903,0.9898543,7.39445
8.550931,0.6509008,1.221087,0.9898543,7.39445
8.600896,0.6509008,1.191221,0.9898543,7.39445
8.650891,0.7780523,1.168981,0.9896896,7.39445
8.700628,0.6509008,1.12577,0.9898543,7.387991
8.75021,0.6509008,1.046975,0.9898543,7.39445
8.80146,0.5237532,0.9414917,0.9896896,7.39445
8.851426,0.6509008,0.7565774,0.9896896,7.39445
8.899853,0.6509008,0.6739696,0.9896896,7.387991
8.94985,0.7780523,0.6034353,0.9896896,7.387991
9.00085,0.6509008,0.5583187,0.9898543,7.387991
9.051684,0.6509008,0.4655438,0.9898543,7.387991
9.1008,0.6509008,0.371498,0.9898543,7.381532
9.150302,0.7780523,0.3092245,0.9898543,7.381532
9.200237,0.6509008,0.2444092,0.9896896,7.381532
9.250233,0.6509008,0.1230393,0.9898543,7.381532
9.301181,0.6509008,-0.0008723034,0.9898543,7.387991
9.351428,0.6509008,-0.09873071,0.9898543,7.387991
9.400375,0.7780523,-0.1247839,0.9896896,7.381532
9.449969,0.6509008,-0.1514727,0.9896896,7.381532
9.499975,0.6509008,-0.2169235,0.9896896,7.381532
9.551836,0.9051962,-0.2486956,0.9896896,7.381532
9.601696,0.7780523,-0.3713364,0.9896896,7.381532
9.649848,0.7780523,-0.6623699,0.9896896,7.375072
9.700962,0.7780523,-0.8962135,0.9896896,7.381532
9.750154,0.7780523,-1.056981,0.9898543,7.381532
9.80106,0.9051962,-1.102733,0.9898543,7.375072
9.8517,0.7780523,-1.114171,0.9896896,7.375072
9.900165,0.6509008,-1.116713,0.9896896,7.375072
9.950638,0.7780523,-1.125609,0.9898543,7.375072
10.00062,0.7780523,-1.15611,0.9898543,7.375072
10.05162,0.7780523,-1.161194,0.9898543,7.375072
10.10149,0.6509008,-1.166913,0.9896896,7.375072
10.14977,0.9051962,-1.235541,0.9898543,7.368613
10.20085,0.7780523,-1.278116,0.9896896,7.368613
10.25087,0.9051962,-1.238718,0.9898543,7.368613
10.30087,0.6509008,-1.144037,0.9798071,7.368613
10.3517,0.7780523,-0.8968489,0.9798071,7.368613
10.40005,0.9051962,-0.6604636,0.9798071,7.368613
10.45019,0.9051962,-0.3687947,0.9796425,7.368613
10.49987,0.7780523,-0.2880931,0.9798071,7.368613
10.55106,0.9051962,-0.210569,0.9798071,7.368613
10.60187,0.7780523,-0.1209713,0.9796425,7.368613
10.65037,0.9051962,0.04487965,0.9798071,7.362154
10.70034,0.6509008,0.2139078,0.9798071,7.362154
10.75056,0.7780523,0.3791234,0.9798071,7.362154
10.80088,0.7780523,0.4896907,0.9798071,7.362154
10.85163,0.7780523,0.6021644,0.9798071,7.362154
10.90034,0.7780523,0.7508583,0.9798071,7.362154
10.95048,0.6509008,0.9128966,0.9798071,7.362154
11.00082,0.7780523,1.054601,0.9796425,7.362154
11.05178,0.6509008,1.086373,0.9796425,7.362154
11.10145,0.6509008,1.130219,0.9798071,7.362154
11.15008,0.6509008,1.179148,0.9798071,7.362154
11.20099,0.6509008,1.223629,0.9798071,7.355695
11.25091,0.7780523,1.25413,0.9798071,7.362154
11.30162,0.6509008,1.287173,0.9898543,7.355695
11.35132,0.5237532,1.295434,0.9898543,7.355695
11.40009,0.7780523,1.299247,0.9896896,7.362154
11.45022,0.6509008,1.38249,0.9896896,7.355695
11.50062,0.6509008,1.417439,0.9898543,7.355695
11.55142,0.7780523,1.43968,0.9900191,7.355695
11.60114,0.6509008,1.463827,0.9898543,7.355695
11.64998,0.7780523,1.479713,0.9898543,7.355695
11.69994,0.5237532,1.477171,0.9898543,7.355695
11.75069,0.6509008,1.471452,0.9900191,7.355695
11.80139,0.6509008,1.463827,0.9898543,7.355695
11.85133,0.7780523,1.45366,0.9898543,7.349236
11.89994,0.7780523,1.447941,0.9896896,7.349236
11.94994,0.7780523,1.444128,0.9798071,7.355695
12.00008,0.6509008,1.435867,0.9798071,7.349236
12.05098,0.6509008,1.418075,0.9796425,7.349236
12.10161,0.5237532,1.409179,0.9798071,7.349236
12.15012,0.6509008,1.384396,0.9798071,7.349236
12.20098,0.6509008,1.233161,0.9796425,7.349236
12.25069,0.6509008,1.168345,0.9798071,7.349236
12.30198,0.6509008,1.118781,0.9798071,7.349236
12.35157,0.6509008,1.083831,0.9798071,7.349236
12.39998,0.7780523,1.053965,0.9798071,7.342777
12.44983,0.6509008,0.9916919,0.9798071,7.349236
12.49985,0.6509008,0.8855725,0.9798071,7.349236
12.55181,0.5237532,0.7209924,0.9798071,7.342777
12.60161,0.7780523,0.6072479,0.9798071,7.349236
12.64983,0.6509008,0.5208275,0.9798071,7.342777
12.70085,0.6509008,0.4166146,0.9798071,7.342777
12.75069,0.6509008,0.3340068,0.9799718,7.342777
12.8013,0.5237532,0.2819003,0.9798071,7.342777
12.85148,0.7780523,0.1624369,0.9796425,7.342777
12.89985,0.7780523,0.06203663,0.9796425,7.342777
12.95081,0.6509008,-0.1298675,0.9799718,7.342777
12.99993,0.7780523,-0.2658527,0.9796425,7.349236
13.05187,0.6509008,-0.4374226,0.9798071,7.342777
13.10144,0.6509008,-0.626785,0.9798071,7.342777
13.15006,0.6509008,-0.7062156,0.9798071,7.342777
13.19985,0.7780523,-0.7284562,0.9798071,7.336317
13.25042,0.6509008,-0.855545,0.9799718,7.342777
13.3011,0.6509008,-0.9705605,0.9798071,7.342777
13.35096,0.9051962,-0.9597579,0.9799718,7.336317
13.40027,0.7780523,-1.046814,0.9796425,7.342777
13.44977,0.6509008,-1.146579,0.9798071,7.336317
13.5006,0.6509008,-1.267313,0.9798071,7.342777
13.55143,0.6509008,-1.264771,0.9798071,7.342777
13.60116,0.7780523,-1.255239,0.9796425,7.342777
13.65069,0.6509008,-1.335306,0.9798071,7.342777
13.70006,0.6509008,-1.253333,0.9796425,7.336317
13.75068,0.7780523,-1.06969,0.9798071,7.336317
13.8016,0.6509008,-0.9711959,0.9798071,7.342777
13.85155,0.5237532,-0.7951778,0.9796425,7.342777
13.90029,0.6509008,-0.5721368,0.9796425,7.336317
13.95067,0.7780523,-0.3103337,0.9798071,7.336317
14.00027,0.6509008,-0.1292321,0.9796425,7.336317
14.05168,0.6509008,0.08173546,0.9799718,7.336317
14.10128,0.6509008,0.2005635,0.9796425,7.342777
14.15005,0.6509008,0.344174,0.9798071,7.342777
14.20067,0.7780523,0.4680856,0.9798071,7.336317
14.2506,0.7780523,0.6174151,0.9798071,7.336317
14.30162,0.7780523,0.7711927,0.9798071,7.336317
14.35105,0.6509008,0.9281474,0.9799718,7.336317
14.39994,0.6509008,1.053965,0.9798071,7.336317
14.45095,0.6509008,1.093998,0.9798071,7.336317
14.5008,0.7780523,1.130219,0.9798071,7.336317
14.55179,0.6509008,1.177877,0.9798071,7.336317
14.60137,0.7780523,1.182961,0.9798071,7.336317
14.65084,0.9051962,1.188044,0.9798071,7.336317
14.70084,0.6509008,1.200117,0.9796425,7.336317
14.75053,0.7780523,1.224265,0.9798071,7.329859
14.80155,0.9051962,1.265568,0.9798071,7.336317
14.85156,0.9051962,1.371052,0.9796425,7.336317
14.90005,0.6509008,1.406002,0.9798071,7.336317
14.95032,0.9051962,1.422523,0.9799718,7.336317
15.00079,1.032348,1.427607,0.9798071,7.336317
15.05158,0.7780523,1.425065,0.9798071,7.336317
15.10153,0.6509008,1.417439,0.9798071,7.336317
15.15082,0.7780523,1.408543,0.9798071,7.336317
15.20077,0.9051962,1.407908,0.9798071,7.336317
15.2504,0.7780523,1.384396,0.9798071,7.336317
15.30158,0.6509008,1.36152,0.9798071,7.342777
15.35105,0.7780523,1.216639,0.9799718,7.336317
15.40005,0.7780523,1.146105,0.9798071,7.336317
15.4498,0.7780523,1.085738,0.9798071,7.336317
15.49984,0.6509008,1.055872,0.9798071,7.336317
15.55109,0.9051962,1.024735,0.9798071,7.336317
15.601,0.7780523,1.00313,0.9798071,7.336317
15.65079,0.9051962,0.9859728,0.9798071,7.336317
15.70054,0.6509008,0.8626965,0.9798071,7.336317
15.75036,0.7780523,0.7387849,0.9798071,7.336317
15.80157,0.9051962,0.6555417,0.9798071,7.336317
15.85153,0.7780523,0.5602251,0.9798071,7.336317
15.90008,0.6509008,0.4884199,0.9798071,7.336317
15.95089,0.7780523,0.394374,0.9798071,7.336317
16.00054,0.9051962,0.3225688,0.9798071,7.336317
16.05001,0.9051962,0.2609307,0.9798071,7.336317
16.10007,0.6509008,0.1529052,0.9798071,7.336317
16.15009,0.9051962,-0.1044498,0.9798071,7.336317
16.20136,0.7780523,-0.2181943,0.9796425,7.336317
16.25051,0.7780523,-0.3535439,0.9796425,7.336317
16.30055,0.7780523,-0.4895291,0.9798071,7.336317
16.34991,0.7780523,-0.5524381,0.9798071,7.336317
16.39991,0.7780523,-0.6350458,0.9798071,7.336317
16.45189,0.7780523,-0.7182891,0.9798071,7.336317
16.50069,0.9051962,-0.8472842,0.9798071,7.336317
16.55068,0.7780523,-0.9133705,0.9798071,7.336317
16.60045,0.7780523,-0.9432364,0.9798071,7.336317
16.64994,99.44539,-0.9762794,0.9798071,7.336317
16.70109,93.2151,-0.9807276,0.9796425,7.336317
16.75036,88.63776,-0.9877174,0.9798071,7.336317
16.80066,85.58618,-0.9896238,0.9799718,7.336317
16.85018,83.67896,-1.043001,0.9798071,7.336317
16.90039,82.28033,-1.027115,0.9796425,7.336317
16.95151,82.91606,-1.282564,0.9798071,7.342777
17,81.77173,-1.623162,0.9798071,7.336317
17.05054,116.8647,-1.700051,0.9796425,7.336317
17.1005,134.0298,-1.693061,0.9798071,7.336317
17.15003,130.3425,-1.545002,0.9799718,7.336317
17.2012,108.2186,-1.215842,0.9798071,7.336317
17.2506,102.6241,-0.8345754,0.9798071,7.336317
17.30095,97.53816,-0.5486254,0.9798071,7.336317
17.35043,102.7513,-0.3027084,0.9798071,7.336317
17.40048,109.7444,-0.1603688,0.9796425,7.336317
17.45151,110.1259,-0.01167489,0.9798071,7.336317
17.49983,95.12233,0.1465507,0.9798071,7.342777
17.5505,94.86804,0.2710979,0.9798071,7.336317
17.60032,87.74771,0.4039058,0.9798071,7.336317
17.64999,85.20473,0.5170149,0.9798071,7.336317
17.70096,83.93326,0.6726986,0.9798071,7.336317
17.75083,84.0604,0.7337014,0.9798071,7.342777
17.80054,83.29751,0.7858079,0.9796425,7.336317
17.8501,114.5761,0.8970105,0.9796425,7.336317
17.90003,133.7755,1.047611,0.9798071,7.336317
17.95142,130.3425,1.108614,0.9798071,7.336317
18.00043,106.3114,1.158814,0.9796425,7.336317
18.05087,99.44539,1.206472,0.9798071,7.336317
18.10024,93.34225,1.231254,0.9798071,7.336317
18.15031,103.0055,1.255401,0.9799718,7.336317
18.20151,109.2358,1.289715,0.9799718,7.336317
18.24989,98.55534,1.35326,0.9798071,7.336317
18.30042,93.978,1.417439,0.9798071,7.336317
18.35032,89.40065,1.441586,0.9798071,7.329859
18.40107,86.98483,1.443493,0.9798071,7.329859
18.45107,84.44184,1.440315,0.9798071,7.329859
18.50095,82.28033,1.421252,0.9798071,7.329859
18.55007,82.53461,1.392022,0.9796425,7.329859
18.60007,104.7856,1.357072,0.9796425,7.329859
18.65061,131.2325,1.376136,0.9796425,7.329859
18.70158,116.3562,1.4257,0.9798071,7.336317
18.7503,103.5141,1.426336,0.9799718,7.329859
18.80032,95.50377,1.423159,0.9798071,7.336317
18.85038,88.38345,1.411721,0.9798071,7.329859
18.90056,105.0399,1.293528,0.9796425,7.336317
18.951,107.4557,1.142928,0.9798071,7.329859
19.0008,96.52097,1.032996,0.9798071,7.329859
19.05079,90.41783,0.9586487,0.9798071,7.329859
19.10007,85.45904,0.9561069,0.9796425,7.329859
19.14995,83.80611,0.8798537,0.9799718,7.329859
19.20207,82.78893,0.7190862,0.9798071,7.336317
19.25078,83.17036,0.5424325,0.9798071,7.329859
19.30037,82.66177,0.3626019,0.9798071,7.329859
19.35019,88.89205,0.2177205,0.9796425,7.329859
19.40006,118.3905,0.06203663,0.9796425,7.323399
19.45107,130.4697,-0.1158878,0.9798071,7.329859
19.5008,112.796,-0.2232779,0.9798071,7.323399
19.5508,103.6413,-0.3096983,0.9798071,7.323399
19.60079,98.1739,-0.5981901,0.9796425,7.329859
19.65079,96.26666,-0.8091576,0.9798071,7.329859
19.70206,102.1155,-1.189153,0.9796425,7.329859
19.75014,107.5829,-1.558982,0.9796425,7.323399
19.80018,96.26666,-1.729916,0.9796425,7.323399
19.85006,88.12916,-1.711488,0.9796425,7.323399
19.90062,85.45904,-1.697509,0.9798071,7.329859
19.95152,84.44184,-1.446508,0.9798071,7.323399
20.00043,84.569,-0.8752438,0.9798071,7.323399
20.05027,83.80611,-0.6827042,0.9798071,7.329859
20.10072,83.04321,-0.5772204,0.9796425,7.323399
20.15051,86.09478,-0.4399644,0.9799718,7.31694
20.20144,128.181,-0.3325743,0.9799718,7.323399
20.25006,131.9954,-0.2334449,0.9798071,7.323399
20.30077,114.0675,-0.1514727,0.9798071,7.323399
20.34989,106.82,-0.1273258,0.9798071,7.31694
20.40106,102.1155,-0.02819646,0.9796425,7.323399
20.45106,98.80965,0.02263908,0.9798071,7.323399
20.50064,106.0571,0.08364179,0.9798071,7.31694
20.55026,111.0159,0.1592596,0.9798071,7.31694
20.59999,104.7856,0.2590244,0.9796425,7.31694
20.65101,96.52097,0.344174,0.9796425,7.323399
20.70191,91.18073,0.4000931,0.9796425,7.31694
20.75069,89.90925,0.4039058,0.9798071,7.31694
20.80055,86.85767,0.4312298,0.9796425,7.31694
20.85006,85.96764,0.4541058,0.9796425,7.31694
20.9005,85.84048,0.5189212,0.9798071,7.31694
20.95164,94.86804,0.5659441,0.9796425,7.31694
21.00019,122.8407,0.6434683,0.9798071,7.31694
21.05073,129.8339,0.829018,0.9796425,7.31694
21.10101,108.9815,0.8849371,0.9798071,7.31694
21.15072,102.497,0.9160738,0.9799718,7.310481
21.20191,92.07076,0.9186156,0.9798071,7.310481
21.25036,102.6241,0.9084485,0.9798071,7.310481
21.3001,106.9472,0.9040004,0.9796425,7.310481
21.35065,109.8716,0.9027296,0.9798071,7.304022
21.4003,93.08795,0.9001877,0.9798071,7.310481
21.4513,89.14634,0.9046358,0.9798071,7.304022
21.50106,87.23911,0.8995523,0.9796425,7.310481
21.5505,86.47623,0.8938332,0.9799718,7.31694
21.60038,86.22193,0.8595193,0.9798071,7.31694
21.65011,85.71333,0.5691213,0.9798071,7.329859
21.70106,93.72369,0.372769,0.9798071,7.329859
21.75055,121.315,0.2761814,0.9799718,7.323399
21.80038,126.0195,0.2005635,0.9796425,7.310481
21.85038,108.7272,0.0842772,0.9796425,7.297563
21.89999,100.9712,0.01819101,0.9796425,7.323399
21.95141,96.90242,-0.1775259,0.9798071,7.336317
22.00052,98.42819,-0.2289969,0.9798071,7.362154
22.0505,106.1843,-0.1673588,0.9799718,7.387991
22.10085,109.9987,-0.2626754,0.9798071,7.491337
22.15037,94.2323,-0.3649819,0.9799718,7.543011
22.20114,90.03638,-0.4444125,0.9799718,7.39445
22.2505,87.62056,-0.4774556,0.9799718,7.368613
22.3011,85.33189,-0.4494961,0.9798071,7.323399
22.35,85.33189,-0.5791267,0.9798071,7.045655
22.40001,84.569,-0.9762794,0.9798071,7.291103
22.451,90.41783,-1.141495,0.9798071,7.336317
22.50029,132.504,-1.19106,0.9796425,7.355695
22.55196,131.614,-1.255875,0.9798071,7.375072
22.60054,117.5005,-1.268584,0.9796425,7.387991
22.6505,101.3526,-1.235541,0.9796425,7.381532
22.70174,97.15671,-1.148485,0.9796425,7.39445
22.74998,103.2598,-1.102098,0.9798071,7.413827
22.80129,106.9472,-1.226009,0.9796425,7.426746
22.85003,103.6413,-1.34865,0.9796425,7.439664
22.90102,93.2151,-1.357546,0.9796425,7.459042
22.95129,91.18073,-1.267948,0.9798071,7.491337
23.00054,89.2735,-1.262865,0.9796425,7.510715
23.05203,86.22193,-1.24126,0.9796425,7.523633
23.10077,83.93326,-1.416642,0.9796425,7.543011
23.15051,85.07759,-1.631423,0.9798071,7.536551
23.20148,88.63776,-1.69878,0.9794778,7.562388
23.25076,132.2497,-1.67781,0.9798071,7.575306
23.30202,115.7204,-1.515136,0.9796425,7.594684
23.35,110.8888,-1.538012,0.9798071,7.614061
23.40077,103.7684,-1.501792,0.9796425,7.639898
23.45132,94.35944,-1.494167,0.9798071,7.652816
23.501,101.7341,-1.480187,0.9794778,7.659276
23.55198,105.8028,-1.39885,0.9796425,7.691572
23.60081,107.3286,-1.363901,0.9796425,7.717408
23.65013,93.59654,-1.217748,0.9796425,7.77554
23.70137,89.0192,-1.065877,0.9796425,7.807837
23.75077,88.5106,-0.895578,0.9798071,7.801377
23.80189,86.98483,-0.7951778,0.9798071,7.801377
23.85083,83.93326,-0.8091576,0.9798071,7.807837
23.90077,83.55181,-0.9616643,0.9798071,7.807837
23.95149,105.2942,-0.9832693,0.9796425,7.782
24.00012,130.9782,-0.9159122,0.9798071,7.743245
24.05136,122.0779,-0.5988255,0.9798071,7.846591
24.10047,105.93,-0.387858,0.9796425,7.885346
24.15001,101.4798,-0.2245488,0.9798071,7.911183
24.20183,93.59654,-0.1374929,0.9796425,7.930561
24.25037,100.0811,-0.01231029,0.9798071,7.962856
24.30215,104.277,0.1986572,0.9798071,8.008071
24.35012,97.53816,0.3676854,0.9799718,7.995152
24.39997,92.07076,0.4807945,0.9799718,8.008071
24.45199,87.62056,0.6396556,0.9799718,8.008071
24.50008,83.80611,0.754671,0.9798071,7.982234
24.55198,84.3147,0.8016939,0.9798071,7.962856
24.59997,83.17036,0.9370435,0.9798071,7.937019
24.65072,95.12233,1.022829,0.9798071,7.982234
24.70187,129.3253,1.088915,0.9798071,8.027448
24.75046,127.4181,1.140386,0.9798071,8.053285
24.80128,100.4626,1.180419,0.9798071,8.085581
24.85097,89.78209,1.19694,0.9799718,8.085581
24.89996,91.18073,1.221723,0.9799718,8.085581
24.95197,103.8956,1.233161,0.9799718,8.059744
25.00037,105.2942,1.231254,0.9799718,8.046825
25.05135,103.5141,1.229348,0.9799718,8.014529
25.10094,88.7649,1.225535,0.9798071,7.956397
25.1507,86.60338,1.216639,0.9799718,7.995152
25.20157,85.07759,1.158814,0.9799718,8.053285
25.25111,82.15317,1.013297,0.9798071,8.079121
25.3019,86.85767,0.8544358,0.9798071,8.098498
25.35011,122.205,0.6841368,0.9798071,8.09204
25.40051,112.4145,0.600258,0.9798071,8.079121
25.45161,104.1499,0.5201921,0.9798071,8.027448
25.49999,90.92643,0.377217,0.9798071,7.995152
25.55128,86.09478,0.2647434,0.9798071,8.059744
25.60098,102.3698,0.1122368,0.9798071,8.117876
25.651,104.277,-0.05869776,0.9798071,8.130795
25.70098,91.18073,-0.1622752,0.9798071,8.150172
25.7505,87.87486,-0.2010373,0.9799718,8.143713
25.80182,83.80611,-0.2760198,0.9799718,8.124335
25.85023,80.88168,-0.3338452,0.9798071,8.098498
25.90023,79.61021,-0.5950128,0.9798071,8.059744
25.95133,79.61021,-0.8803274,0.9799718,8.046825
26.00059,93.08795,-1.09892,0.9798071,8.130795
26.051,122.0779,-1.318784,0.9798071,8.156631
26.1007,116.229,-1.236812,0.9798071,8.156631
26.15078,105.1671,-1.292731,0.9799718,8.163091
26.2014,96.52097,-1.412194,0.9799718,8.16955
26.25001,91.43503,-1.412194,0.9799718,8.156631
26.30177,97.66531,-1.401392,0.9798071,8.130795
26.35048,105.2942,-1.407746,0.9799718,8.066203
26.40043,94.99519,-1.419184,0.9798071,8.033907
26.45171,88.63776,-1.42808,0.9798071,8.098498
26.50027,83.04321,-1.48527,0.9798071,8.143713
26.55152,81.64457,-1.261594,0.9798071,8.150172
26.60075,80.11879,-1.008687,0.9798071,8.163091
26.65077,79.61021,-0.9159122,0.9798071,8.150172
26.70175,79.10161,-0.6007318,0.9798071,8.143713
26.7504,115.7204,-0.3421059,0.9799718,8.124335
26.80176,131.3597,-0.1807031,0.9799718,8.09204
26.8503,126.4009,0.005482095,0.9798071,8.046825
26.90109,104.5313,0.2100952,0.9798071,8.09204
26.9513,95.24948,0.338455,0.9798071,8.137254
27.00048,91.43503,0.4502931,0.9799718,8.130795
27.05161,100.4626,0.5780174,0.9798071,8.156631
27.09998,105.6757,0.7190862,0.9798071,8.163091
27.15009,105.8028,0.8207573,0.9799718,8.156631
27.20099,89.78209,1.012661,0.9798071,8.130795
27.2508,86.34908,1.083831,0.9799718,8.079121
27.30147,82.91606,1.120052,0.9798071,8.053285
27.35108,80.50024,1.169616,0.9798071,8.130795
27.40097,79.73734,1.18169,0.9798071,8.150172
27.45207,79.73734,1.186138,0.9798071,8.163091
27.50085,93.85085,1.195669,0.9798071,8.150172
27.55204,94.10515,1.21092,0.9799718,8.137254
27.60074,128.3081,1.249682,0.9799718,8.117876
27.6507,107.0743,1.322758,0.9798071,8.111418
27.70189,94.61374,1.378677,0.9798071,8.066203
27.75118,86.34908,1.376771,0.9798071,8.072661
27.80222,91.68932,1.372323,0.9799718,8.130795
27.85046,98.55534,1.363427,0.9798071,8.150172
27.90018,104.5313,1.342457,0.9798071,8.150172
27.95103,91.56216,1.290351,0.9799718,8.137254
27.99999,86.09478,1.26811,0.9798071,8.117876
28.05121,83.67896,1.199482,0.9798071,8.059744
28.10122,82.15317,1.126406,0.9798071,8.020988
28.15104,79.73734,1.022193,0.9798071,8.098498
28.20209,78.21156,0.76738,0.9799718,8.130795
28.25074,82.53461,0.6142378,0.9798071,8.130795
28.30205,132.1226,0.5023996,0.9798071,8.137254
28.35034,129.4525,0.4128019,0.9798071,8.124335
28.40106,97.53816,0.3136726,0.9799718,8.111418
28.45201,87.74771,0.2520346,0.9798071,8.104958
28.50038,82.02603,0.1084241,0.9798071,8.09204
28.55119,85.20473,-0.07013575,0.9798071,8.033907
28.60108,99.82683,-0.1794323,0.9798071,8.085581
28.65115,98.6825,-0.2703007,0.9798071,8.124335
28.70101,87.62056,-0.3401996,0.9798071,8.117876
28.75048,83.42466,-0.4297973,0.9799718,8.111418
28.80174,81.51743,-0.6255141,0.9798071,8.072661
28.8505,78.46587,-0.6464838,0.9798071,8.008071
28.90001,75.92289,-0.9375173,0.9796425,8.027448
28.95117,75.28716,-1.409017,0.9799718,8.079121
29.00047,82.78893,-1.614901,0.9798071,8.111418
29.05198,133.5212,-1.708311,0.9799718,8.104958
29.1003,129.4525,-1.680987,0.9798071,8.117876
29.1502,107.8372,-1.661288,0.9798071,8.098498
29.20106,96.77527,-1.659382,0.9798071,8.09204
29.25006,87.74771,-1.718478,0.9798071,8.079121
29.30187,89.65494,-1.708311,0.9799718,8.072661
29.35011,101.3526,-1.708311,0.9799718,8.008071
29.40119,102.8784,-1.706405,0.9799718,8.059744
29.45173,89.5278,-1.701957,0.9798071,8.104958
29.50067,84.569,-1.380422,0.9798071,8.09204
29.55181,83.42466,-1.006145,0.9798071,8.072661
29.60014,79.86449,-0.4927063,0.9798071,8.020988
29.65122,77.57583,-0.3344806,0.9796425,7.969316
29.70222,76.30434,-0.2347159,0.9796425,8.027448
29.75119,75.54144,-0.1552854,0.9798071,8.072661
29.8012,100.4626,0.03598339,0.9798071,8.072661
29.85031,131.614,0.2342421,0.9798071,8.079121
29.90023,105.2942,0.3905613,0.9798071,8.079121
29.95175,93.978,0.5284528,0.9798071,8.072661
30.00024,87.23911,0.6809596,0.9798071,8.059744
30.05188,89.0192,0.8048712,0.9798071,8.059744
30.10106,96.64812,0.9866082,0.9798071,8.014529
30.15021,103.2598,1.062861,0.9799718,7.969316
30.20123,90.92643,1.116239,0.9799718,8.033907
30.25121,86.34908,1.136573,0.9798071,8.053285
30.30219,83.17036,1.170887,0.9796425,8.053285
30.3507,80.75454,1.205837,0.9798071,8.046825
30.40101,77.57583,1.211555,0.9798071,8.020988
30.45175,76.55863,1.229348,0.9798071,7.962856
30.50124,88.5106,1.244599,0.9796425,7.943479
30.55126,109.1087,1.277642,0.9798071,7.995152
30.60048,115.5933,1.315133,0.9798071,8.040366
30.65081,105.0399,1.369781,0.9799718,8.033907
30.70202,85.96764,1.34754,0.9798071,8.046825
30.75075,84.3147,1.315133,0.9799718,8.040366
30.80175,97.15671,1.291621,0.9798071,8.027448
30.85026,101.8612,1.277006,0.9798071,8.014529
30.90122,103.2598,1.270016,0.9799718,8.001612
30.95175,85.84048,1.257943,0.9799718,7.982234
31.00021,82.28033,1.207107,0.9796425,7.937019
31.05128,80.50024,1.143563,0.9798071,7.962856
31.10095,77.95727,1.024735,0.9796425,8.014529
31.15046,77.57583,0.8144028,0.9799718,8.020988
31.2017,90.54498,0.6669797,0.9799718,8.020988
31.251,126.6552,0.5570478,0.9799718,8.008071
31.30222,114.4489,0.4947743,0.9799718,7.975774
31.35095,102.8784,0.4019994,0.9798071,7.911183
31.40095,91.68932,0.3085891,0.9796425,7.917642
31.45144,83.93326,0.1992926,0.9798071,7.956397
31.50074,95.50377,0.0232746,0.9796425,7.969316
31.55209,103.1327,-0.1184295,0.9798071,7.975774
31.60045,103.6413,-0.1800677,0.9798071,7.988693
31.65123,87.87486,-0.2842805,0.9798071,8.008071
31.70197,84.44184,-0.3903997,0.9798071,8.001612
31.75028,82.53461,-0.3948478,0.9798071,8.001612
31.80195,81.64457,-0.6655472,0.9799718,7.995152
31.85004,80.75454,-1.017583,0.9798071,7.982234
31.90043,90.41783,-1.296543,0.9798071,7.969316
31.95159,128.6896,-1.454769,0.9798071,7.956397
32.0012,127.9267,-1.456675,0.9798071,7.898264
32.05112,108.8544,-1.497979,0.9798071,7.924101
32.10046,98.42819,-1.632693,0.9796425,7.969316
32.1507,91.30788,-1.61363,0.9798071,7.969316
32.20121,93.59654,-1.628881,0.9798071,7.982234
32.2504,102.497,-1.64858,0.9798071,7.962856
32.30204,105.5485,-1.652392,0.9798071,7.937019
32.35036,92.7065,-1.643496,0.9799718,7.885346
32.40095,89.0192,-1.664466,0.9798071,7.865969
32.45192,86.09478,-1.53547,0.9798071,7.911183
32.50016,83.42466,-1.438248,0.9796425,7.949938
32.55111,82.53461,-1.426174,0.9798071,7.956397
32.60074,80.37309,-1.346108,0.9798071,7.962856
32.65044,101.0983,-0.9603934,0.9798071,7.956397
32.70157,130.4697,-0.4558505,0.9798071,7.949938
32.75043,124.6208,-0.2042146,0.9798071,7.937019
32.8014,107.3286,-0.04598885,0.9799718,7.917642
32.85095,99.82683,0.1306647,0.9798071,7.898264
32.90023,94.35944,0.2672852,0.9798071,7.846591
32.95174,101.9884,0.3899259,0.9799718,7.878887
33.00011,108.2186,0.4884199,0.9798071,7.917642
33.05214,97.28386,0.6428327,0.9798071,7.924101
33.10057,94.35944,0.7915268,0.9798071,7.937019
33.15107,90.79928,0.8722283,0.9799718,7.943479
33.20198,88.00201,1.048246,0.9798071,7.930561
33.25071,85.84048,1.068581,0.9798071,7.891806
33.30122,83.42466,1.08955,0.9798071,7.827214
33.35107,83.17036,1.106072,0.9798071,7.833673
33.40028,95.63092,1.154366,0.9798071,7.872428
33.45116,130.9782,1.202024,0.9798071,7.917642
33.50071,126.9095,1.243963,0.9798071,7.904724
33.55171,108.2186,1.283361,0.9798071,7.917642
33.60019,100.7169,1.314498,0.9798071,7.917642
33.65118,92.07076,1.393293,0.9799718,7.904724
33.70171,104.7856,1.419981,0.9798071,7.891806
33.75031,108.6001,1.421888,0.9799718,7.898264
33.80132,96.01237,1.41045,0.9798071,7.878887
33.85048,91.94361,1.40346,0.9798071,7.814295
33.90099,87.74771,1.376136,0.9798071,7.85305
33.95144,85.33189,1.321487,0.9798071,7.898264
34.00023,84.44184,1.239515,0.9798071,7.898264
34.05142,83.42466,1.165804,0.9798071,7.885346
34.10067,91.18073,1.097811,0.9798071,7.859509
34.15109,118.1362,1.043163,0.9799718,7.807837
34.20218,120.4249,0.9796183,0.9799718,7.788459
34.25023,110.5073,0.7807242,0.9798071,7.833673
34.30108,98.55534,0.623134,0.9798071,7.865969
34.3507,90.41783,0.5011287,0.9798071,7.885346
34.40019,95.88522,0.3460803,0.9798071,7.878887
34.45145,105.6757,0.2317003,0.9799718,7.891806
34.5009,106.82,0.07411014,0.9796425,7.872428
34.55223,94.86804,-0.06632309,0.9799718,7.859509
34.60092,91.18073,-0.1692651,0.9798071,7.85305
34.65095,87.23911,-0.3160527,0.9799718,7.833673
34.70228,83.67896,-0.3630756,0.9798071,7.782
34.75034,82.91606,-0.7119346,0.9798071,7.794918
34.80124,82.40748,-1.177715,0.9798071,7.840132
34.85008,86.09478,-1.597744,0.9798071,7.846591
34.9012,130.0882,-1.696873,0.9798071,7.865969
34.95123,133.3941,-1.676539,0.9798071,7.872428
35.00097,110.253,-1.683529,0.9799718,7.859509
35.05171,106.4386,-1.681623,0.9799718,7.846591
35.10022,99.31824,-1.679716,0.9798071,7.807837
35.1512,97.79247,-1.67781,0.9798071,7.749704
35.20122,103.6413,-1.680352,0.9799718,7.769082
35.25122,109.7444,-1.67781,0.9798071,7.801377
35.30164,96.13953,-1.679081,0.9799718,7.814295
35.35014,92.45221,-1.671456,0.9798071,7.840132
35.40009,88.5106,-1.679716,0.9799718,7.840132
35.45109,86.22193,-1.67781,0.9798071,7.840132
35.50036,84.95044,-1.65557,0.9796425,7.840132
35.55169,84.44184,-1.621255,0.9798071,7.833673
35.60022,87.74771,-1.468113,0.9799718,7.827214
35.65118,116.7376,-1.050626,0.9798071,7.827214
35.70195,133.7755,-0.4615695,0.9798071,7.762622
35.75055,123.8579,-0.2112044,0.9799718,7.756163
35.80141,109.7444,-0.02247747,0.9799718,7.807837
35.85106,101.4798,0.1916673,0.9798071,7.827214
35.90041,97.41101,0.3587892,0.9799718,7.820755
35.95171,105.1671,0.4846072,0.9798071,7.801377
36.0013,109.363,0.6199567,0.9798071,7.762622
36.05234,99.95398,0.8067774,0.9798071,7.710949
36.10026,95.63092,0.9700868,0.9796425,7.743245
36.15121,89.5278,1.055872,0.9798071,7.769082
36.20209,86.60338,1.125135,0.9798071,7.807837
36.25063,85.84048,1.178512,0.9799718,7.807837
36.30225,86.22193,1.195034,0.9798071,7.820755
36.35114,85.33189,1.196305,0.9799718,7.807837
36.40126,86.60338,1.205837,0.9798071,7.801377
36.45219,123.6036,1.228077,0.9798071,7.794918
36.50056,131.2325,1.267475,0.9798071,7.788459
36.55147,129.3253,1.360885,0.9798071,7.736785
36.60092,108.6001,1.4257,0.9798071,7.717408
36.65076,95.37663,1.433326,0.9798071,7.77554
36.70134,95.63092,1.439045,0.9799718,7.801377
36.7508,101.6069,1.438409,0.9798071,7.794918
36.80196,108.6001,1.433326,0.9798071,7.782
36.85063,96.13953,1.426336,0.9798071,7.749704
36.90031,94.61374,1.423159,0.9798071,7.70449
36.95221,87.74771,1.400282,0.9798071,7.685112
37.00042,86.09478,1.39647,0.9798071,7.756163
37.05157,85.71333,1.360885,0.9798071,7.77554
37.10056,84.95044,1.196305,0.9798071,7.782
37.15097,86.47623,1.095269,0.9798071,7.782
37.20196,119.9163,0.9999526,0.9798071,7.769082
37.25047,129.3253,0.8811244,0.9798071,7.756163
37.30165,110.5073,0.7298887,0.9798071,7.743245
37.35096,101.9884,0.6224986,0.9799718,7.723867
37.40091,93.59654,0.4947743,0.9799718,7.678653
37.45216,95.63092,0.3549764,0.9799718,7.710949
37.50046,105.6757,0.2710979,0.9796425,7.743245
37.5518,109.6173,0.1287583,0.9798071,7.762622
37.60041,96.39381,-0.05234336,0.9799718,7.77554
37.65041,92.07076,-0.1470245,0.9798071,7.769082
37.70166,86.85767,-0.2480602,0.9798071,7.756163
37.75071,84.18755,-0.3846807,0.9798071,7.717408
37.80167,83.17036,-0.6433066,0.9798071,7.659276
37.85045,83.80611,-0.8193247,0.9798071,7.652816
37.90045,83.42466,-1.477645,0.9798071,7.717408
37.95113,82.53461,-1.738177,0.9798071,7.749704
38.00054,92.32506,-1.69179,0.9799718,7.743245
38.05233,132.504,-1.697509,0.9798071,7.756163
38.10091,130.2153,-1.693696,0.9798071,7.736785
38.15077,110.7616,-1.694967,0.9798071,7.730327
38.20167,107.3286,-1.693696,0.9798071,7.717408
38.25041,97.66531,-1.693696,0.9798071,7.710949
38.30138,103.7684,-1.69179,0.9798071,7.665735
38.35041,109.4901,-1.653663,0.9798071,7.659276
38.4002,109.1087,-1.423632,0.9798071,7.717408
38.45145,96.01237,-0.7564157,0.9798071,7.736785
38.5007,88.7649,-0.382139,0.9798071,7.736785
38.55137,88.00201,-0.2455184,0.9799718,7.730327
38.60065,83.80611,-0.1324093,0.9798071,7.69803
38.65071,83.42466,0.05250497,0.9898543,7.646358
38.70164,83.17036,0.1300293,0.9898543,7.639898
38.75121,82.40748,0.1408317,0.9898543,7.710949
38.80133,93.2151,0.257118,0.9896896,7.717408
38.8509,127.6724,0.3676854,0.9898543,7.723867
38.90072,128.9439,0.5106604,0.9898543,7.723867
38.95116,123.4765,0.7108254,0.9898543,7.710949
39.00068,105.5485,0.8429978,0.9898543,7.69803
39.05167,97.41101,1.031725,0.9898543,7.691572
39.10041,98.1739,1.073664,0.9898543,7.659276
39.15091,111.3974,1.13276,0.9896896,7.633439
39.20191,111.5245,1.200117,0.9900191,7.659276
39.25127,97.66531,1.232525,0.9898543,7.70449
39.30215,93.2151,1.262391,0.9798071,7.710949
39.35061,91.18073,1.292892,0.9798071,7.710949
39.40037,88.7649,1.304966,0.9798071,7.685112
39.4512,85.96764,1.308143,0.9798071,7.652816
39.50089,84.3147,1.309414,0.9798071,7.620521
39.55207,86.73053,1.297341,0.9798071,7.639898
39.6002,104.1499,1.287809,0.9798071,7.69803
39.65132,130.8511,1.284632,0.9798071,7.70449
39.7022,109.9987,1.271923,0.9798071,7.710949
39.75087,103.8956,1.266204,0.9798071,7.70449
39.80189,92.32506,1.248411,0.9799718,7.685112
39.85065,91.30788,1.229348,0.9799718,7.678653
39.90099,100.4626,1.209014,0.9798071,7.678653
39.95192,109.1087,1.163897,0.9798071,7.62698
40.00016,96.90242,1.114968,0.9798071,7.614061
40.05128,89.78209,1.059049,0.9799718,7.678653
40.10072,88.12916,1.024099,0.9798071,7.691572
40.15063,84.82329,0.851894,0.9799718,7.691572
40.20119,83.17036,0.7305242,0.9798071,7.672194
40.25067,82.91606,0.5405262,0.9799718,7.633439
40.30167,82.15317,0.36705,0.9798071,7.581766
40.35127,96.13953,0.2043762,0.9798071,7.607603
40.40088,127.1638,0.008023831,0.9799718,7.639898
40.45219,131.3597,-0.1095333,0.9798071,7.665735
40.50128,107.4557,-0.1552854,0.9799718,7.691572
40.55238,105.93,-0.2086626,0.9798071,7.678653
40.60042,95.12233,-0.3351161,0.9798071,7.678653
40.65023,100.3354,-0.4043795,0.9798071,7.672194
40.70119,107.0743,-0.5448127,0.9798071,7.665735
40.75098,107.2015,-0.6890586,0.9798071,7.659276
40.80189,92.83366,-0.7729372,0.9798071,7.659276
40.85027,89.14634,-0.9953427,0.9798071,7.607603
40.90091,85.96764,-1.107816,0.9798071,7.601143
40.95119,82.66177,-1.360088,0.9799718,7.659276
41.00129,81.77173,-1.61363,0.9798071,7.672194
41.0518,81.39028,-1.616172,0.9798071,7.672194
41.10044,81.64457,-1.488448,0.9798071,7.652816
41.15037,99.19109,-1.462394,0.9798071,7.607603
41.20164,131.4868,-1.453498,0.9799718,7.568848
41.25043,128.181,-1.452227,0.9798071,7.594684
41.30177,108.9815,-1.497344,0.9799718,7.646358
41.35126,102.6241,-1.515772,0.9799718,7.659276
41.40125,97.02956,-1.437612,0.9798071,7.665735
41.45119,101.9884,-0.735446,0.9798071,7.665735
41.50089,107.4557,-0.3421059,0.9798071,7.652816
41.55215,109.4901,-0.08919906,0.9799718,7.646358
41.60116,93.08795,0.1433736,0.9798071,7.652816
41.65092,88.12916,0.332736,0.9799718,7.652816
41.70218,85.33189,0.4312298,0.9798071,7.588225
41.75091,83.42466,0.5786529,0.9798071,7.588225
41.80169,83.80611,0.7254407,0.9799718,7.633439
41.85037,82.78893,0.7724634,0.9798071,7.652816
41.90091,86.47623,0.863332,0.9798071,7.646358
41.95227,128.6896,1.045069,0.9798071,7.614061
42.00088,131.2325,1.118145,0.9798071,7.562388
42.05215,109.1087,1.186138,0.9798071,7.562388
42.10115,101.2255,1.23189,0.9798071,7.607603
42.15031,94.99519,1.238244,0.9799718,7.646358
42.20181,97.02956,1.270016,0.9799718,7.646358
42.25051,105.2942,1.28908,0.9799718,7.652816
42.30166,108.9815,1.330384,0.9798071,7.652816
42.35049,94.61374,1.419346,0.9798071,7.639898
42.40028,91.05358,1.442222,0.9798071,7.633439
42.45229,89.5278,1.438409,0.9798071,7.639898
42.50071,85.96764,1.428877,0.9799718,7.601143
42.55192,85.58618,1.385032,0.9798071,7.581766
42.60036,84.44184,1.323394,0.9798071,7.614061
42.65126,103.2598,1.286538,0.9798071,7.646358
42.7023,130.5968,1.285267,0.9798071,7.639898
42.75096,123.2222,1.277006,0.9798071,7.620521
42.80161,98.1739,1.251589,0.9796425,7.581766
42.85113,91.30788,1.171522,0.9799718,7.543011
42.90027,92.45221,1.090186,0.9798071,7.588225
42.95235,106.82,1.010755,0.9798071,7.633439
43.00072,108.7272,0.8639674,0.9798071,7.639898
43.05226,94.74089,0.7699216,0.9799718,7.652816
43.1009,89.78209,0.7375141,0.9798071,7.646358
43.15084,88.7649,0.5989872,0.9799718,7.633439
43.20184,86.98483,0.5138376,0.9799718,7.62698
43.25128,85.33189,0.3511638,0.9798071,7.614061
43.30243,85.33189,0.132571,0.9798071,7.594684
43.35114,91.56216,-0.1432119,0.9798071,7.562388
43.40113,126.2737,-0.3058856,0.9798071,7.581766
43.45176,128.6896,-0.43361,0.9798071,7.62698
43.50109,109.6173,-0.5219367,0.9798071,7.639898
43.55128,102.6241,-0.6051799,0.9798071,7.639898
43.6013,94.2323,-0.6375876,0.9798071,7.633439
43.65038,98.80965,-0.666818,0.9798071,7.601143
43.70163,102.1155,-0.7437068,0.9798071,7.568848
43.75138,106.3114,-0.9337047,0.9798071,7.575306
43.80196,92.96081,-0.9800921,0.9798071,7.607603
43.85052,88.7649,-1.046178,0.9798071,7.646358
43.90025,87.87486,-1.271126,0.9798071,7.639898
43.95238,87.62056,-1.361994,0.9798071,7.646358
44.00103,84.95044,-1.515136,0.9798071,7.646358
44.05227,83.80611,-1.39186,0.9799718,7.633439
44.10067,108.8544,-1.381058,0.9798071,7.620521
44.15035,131.1054,-1.359452,0.9798071,7.614061
44.20225,127.2909,-1.330222,0.9798071,7.594684
44.25092,111.6517,-1.336576,0.9799718,7.555929
44.30165,105.6757,-1.363901,0.9798071,7.588225
44.35042,100.4626,-1.198685,0.9798071,7.639898
44.40142,103.0055,-0.6344104,0.9796425,7.639898
44.45197,108.8544,-0.3789617,0.9798071,7.639898
44.50121,109.7444,-0.2029436,0.9799718,7.62698
44.55201,97.9196,-0.01675848,0.9798071,7.581766
44.60111,92.57936,0.206918,0.9799718,7.536551
44.65089,91.05358,0.3467157,0.9798071,7.562388
44.70149,88.63776,0.4649084,0.9798071,7.614061
44.75127,85.96764,0.5329009,0.9798071,7.633439
44.80225,84.69615,0.6123314,0.9799718,7.639898
44.85141,101.3526,0.7381495,0.9799718,7.646358
44.9011,132.1226,0.8194864,0.9799718,7.633439
44.95142,132.1226,1.001859,0.9799718,7.62698
45.00102,110.6345,1.081925,0.9799718,7.614061
45.05164,101.6069,1.144198,0.9798071,7.607603
45.10137,97.15671,1.173429,0.9798071,7.568848
45.15041,104.0227,1.213462,0.9799718,7.555929
45.20211,109.7444,1.237609,0.9798071,7.594684
45.25087,110.8888,1.261756,0.9798071,7.633439
45.3021,96.64812,1.283996,0.9799718,7.639898
45.35054,91.81647,1.338644,0.9799718,7.633439
45.40033,87.74771,1.388209,0.9798071,7.614061
45.45191,85.58618,1.405366,0.9798071,7.581766
45.50062,85.33189,1.38948,0.9798071,7.530093
45.55135,84.95044,1.336738,0.9799718,7.54947
45.60139,88.89205,1.286538,0.9798071,7.601143
45.65106,129.8339,1.276371,0.9798071,7.620521
45.70216,129.4525,1.263027,0.9798071,7.620521
45.75087,109.6173,1.235067,0.9799718,7.62698
45.80166,100.2083,1.194399,0.9798071,7.620521
45.85136,95.75809,1.133396,0.9799718,7.614061
45.90034,99.31824,1.056507,0.9799718,7.607603
45.9514,107.4557,0.9224283,0.9799718,7.607603
46.00062,111.0159,0.747681,0.9799718,7.562388
46.05238,95.63092,0.6828658,0.9798071,7.543011
46.10115,92.7065,0.5608605,0.9799718,7.607603
46.15065,89.40065,0.4350425,0.9799718,7.62698
46.20159,86.34908,0.3759462,0.9798071,7.620521
46.25034,85.58618,0.2208977,0.9798071,7.607603
46.30139,84.82329,-0.07458393,0.9798071,7.575306
46.35117,89.90925,-0.2245488,0.9799718,7.517174
46.40087,115.8476,-0.4069213,0.9798071,7.530093
46.4519,133.3941,-0.6134407,0.9798071,7.581766
46.50035,113.8132,-0.6731725,0.9798071,7.620521
46.55166,108.4729,-0.7386232,0.9798071,7.620521
46.60111,100.3354,-0.8828691,0.9799718,7.620521
46.65081,99.69969,-0.9743731,0.9798071,7.607603
46.70191,108.8544,-0.9947073,0.9798071,7.601143
46.75036,110.3802,-1.081128,0.9799718,7.588225
46.80213,98.1739,-1.328951,0.9798071,7.562388
46.85136,93.34225,-1.487177,0.9798071,7.536551
46.90091,90.92643,-1.545638,0.9798071,7.54947
46.95238,87.74771,-1.647944,0.9896896,7.588225
47.00086,86.85767,-1.628881,0.9898543,7.607603
47.05184,86.09478,-1.679081,0.9898543,7.620521
47.10036,88.38345,-1.674633,0.9898543,7.614061
47.15136,121.6964,-1.67082,0.9896896,7.594684
47.20158,133.0126,-1.670185,0.9898543,7.562388
47.25121,124.1122,-1.661924,0.9898543,7.510715
47.30233,114.9575,-1.262865,0.9898543,7.517174
47.35035,106.6929,-0.7837398,0.9898543,7.568848
47.40046,101.7341,-0.4412353,0.9898543,7.607603
47.4516,108.7272,-0.2251842,0.9898543,7.607603
47.50071,111.1431,-0.09174091,0.9896896,7.614061
47.5519,111.6517,0.103976,0.9898543,7.594684
47.60139,98.55534,0.2946093,0.9896896,7.588225
47.65147,92.19792,0.4039058,0.9798071,7.588225
47.70198,89.78209,0.5132022,0.9799718,7.575306
47.75115,87.87486,0.635843,0.9799718,7.517174
47.80202,87.36626,0.7877141,0.9798071,7.575306
47.85059,86.85767,0.8074128,0.9798071,7.601143
47.90149,85.20473,0.9135322,0.9798071,7.588225
47.95065,87.74771,1.031089,0.9798071,7.562388
48.00177,127.2909,1.062226,0.9798071,7.504256
48.05049,131.7411,1.137844,0.9796425,7.517174
48.10032,111.906,1.187409,0.9798071,7.575306
48.15072,106.5657,1.221087,0.9798071,7.594684
48.20065,98.1739,1.242692,0.9798071,7.594684
48.25201,100.5897,1.26811,0.9798071,7.601143
48.30135,109.2358,1.288444,0.9799718,7.588225
48.35045,109.363,1.302424,0.9798071,7.581766
48.40085,97.41101,1.30306,0.9799718,7.575306
48.45065,92.45221,1.302424,0.9798071,7.568848
48.5022,91.81647,1.283361,0.9798071,7.510715
48.55112,91.43503,1.273829,0.9798071,7.523633
48.60065,87.87486,1.259214,0.9798071,7.588225
48.65048,85.45904,1.234432,0.9798071,7.594684
48.70115,92.45221,1.122593,0.9798071,7.588225
48.75224,123.9851,1.022829,0.9798071,7.562388
48.80033,130.724,0.971993,0.9798071,7.530093
48.85136,118.2634,0.8582485,0.9798071,7.497797
48.90136,106.82,0.7877141,0.9798071,7.530093
48.95145,96.13953,0.7019291,0.9798071,7.581766
49.00238,94.99519,0.5818301,0.9798071,7.575306
49.05101,106.5657,0.5208275,0.9799718,7.594684
49.10056,108.2186,0.4261462,0.9798071,7.588225
49.15134,95.24948,0.3352777,0.9798071,7.575306
49.2006,90.79928,0.2844422,0.9799718,7.562388
49.25237,86.22193,0.1618014,0.9798071,7.54947
49.30124,84.82329,-0.01231029,0.9898543,7.530093
49.35054,84.3147,-0.09046999,0.9898543,7.504256
49.40063,84.44184,-0.2023082,0.9900191,7.536551
49.45034,83.04321,-0.4602987,0.9898543,7.581766
49.5013,86.85767,-0.6890586,0.9898543,7.588225
49.55128,93.72369,-0.8123348,0.9898543,7.575306
49.60129,130.2153,-1.020761,0.9900191,7.562388
49.65139,111.906,-1.02775,0.9898543,7.530093
49.70033,106.5657,-1.092566,0.9898543,7.484879
49.75161,98.1739,-1.238718,0.9898543,7.510715
49.80111,94.99519,-1.30544,0.9898543,7.575306
49.85089,102.7513,-1.540554,0.9898543,7.562388
49.90057,107.3286,-1.654299,0.9896896,7.581766
49.95126,93.85085,-1.64985,0.9898543,7.575306
50.0024,88.5106,-1.654934,0.9898543,7.562388
50.05055,85.45904,-1.637142,0.9898543,7.555929
50.10134,83.29751,-1.66383,0.9900191,7.562388
50.15138,82.40748,-1.609818,0.9896896,7.543011
50.20111,82.78893,-1.660653,0.9898543,7.497797
50.25237,81.26313,-1.658747,0.9898543,7.536551
50.30069,98.30104,-1.632693,0.9896896,7.568848
50.35089,117.3734,-1.633964,0.9898543,7.568848
50.40046,125.5108,-1.633329,0.9898543,7.555929
50.45154,113.686,-1.590754,0.9898543,7.523633
50.50232,106.6929,-1.044907,0.9896896,7.484879
50.55082,101.4798,-0.7259144,0.9898543,7.484879
50.60068,98.04675,-0.4405999,0.9898543,7.536551
50.65076,98.55534,-0.2645818,0.9898543,7.562388
50.70045,107.4557,-0.1324093,0.9896896,7.568848
50.75142,96.77527,0.01692008,0.9898543,7.568848
50.8009,91.81647,0.1795939,0.9898543,7.562388
50.85088,89.5278,0.3473511,0.9898543,7.54947
50.90125,85.84048,0.435678,0.9898543,7.536551
50.95139,83.55181,0.5367135,0.9898543,7.530093
51.00247,82.78893,0.6504583,0.9900191,7.504256
51.05125,82.40748,0.7095544,0.9898543,7.484879
51.10126,82.02603,0.7356076,0.9898543,7.530093
51.15101,84.0604,0.7730989,0.9898543,7.562388
51.20131,130.0882,0.8576131,0.9898543,7.562388
51.25234,109.363,1.041257,0.9898543,7.555929
51.30096,100.2083,1.073029,0.9898543,7.530093
51.35126,94.48659,1.126406,0.9898543,7.497797
51.40071,91.43503,1.16072,0.9896896,7.465501
51.45058,99.69969,1.182961,0.9898543,7.504256
51.50159,106.6929,1.206472,0.9898543,7.54947
51.55096,96.01237,1.21791,0.9896896,7.54947
51.60096,91.30788,1.221723,0.9898543,7.555929
51.65121,87.62056,1.221087,0.9896896,7.54947
51.70101,85.84048,1.217275,0.9898543,7.543011
51.75188,84.18755,1.214097,0.9898543,7.530093
51.80054,81.89888,1.177242,0.9900191,7.523633
51.85132,80.88168,1.118781,0.9896896,7.491337
51.90113,89.2735,0.9630968,0.9896896,7.484879
51.95106,124.2394,0.759119,0.9896896,7.54947
52.00188,120.8064,0.708919,0.9896896,7.555929
52.05035,104.0227,0.5945391,0.9898543,7.530093
52.10045,92.45221,0.4979515,0.9898543,7.504256
52.15088,86.98483,0.3950095,0.9898543,7.465501
52.20086,99.31824,0.2952448,0.9898543,7.478419
52.25173,103.5141,0.1859483,0.9898543,7.517174
52.30137,103.8956,0.03979605,0.9898543,7.54947
52.35071,88.25631,-0.08093833,0.9896896,7.543011
52.40049,85.58618,-0.14766,0.9896896,7.555929
52.45145,83.55181,-0.2099336,0.9898543,7.543011
52.50218,81.13599,-0.2201006,0.9898543,7.536551
52.55037,80.11879,-0.323678,0.9898543,7.523633
52.6011,78.46587,-0.6731725,0.9898543,7.517174
52.65095,79.3559,-0.969925,0.9898543,7.478419
52.70047,114.0675,-1.159923,0.9896896,7.47196
52.75205,132.6312,-1.337847,0.9898543,7.536551
52.80137,112.9231,-1.311794,0.9898543,7.54947
52.85132,101.8612,-1.32069,0.9900191,7.536551
52.90047,94.10515,-1.571055,0.9898543,7.523633
52.95104,88.89205,-1.601557,0.9898543,7.491337
53.00155,98.30104,-1.594567,0.9898543,7.446123
53.05157,104.0227,-1.647944,0.9896896,7.47196
53.10137,92.45221,-1.656205,0.9896896,7.536551
53.15115,88.00201,-1.654934,0.9898543,7.523633
53.20068,84.3147,-1.652392,0.9896896,7.543011
53.2517,81.39028,-1.656205,0.9898543,7.530093
53.30157,78.84731,-1.65684,0.9798071,7.523633
53.35099,77.57583,-1.635235,0.9799718,7.517174
53.40084,77.83012,-1.619349,0.9799718,7.517174
53.45082,115.2118,-1.616172,0.9798071,7.465501
53.50207,129.4525,-1.615536,0.9798071,7.478419
53.55145,127.2909,-1.614901,0.9798071,7.530093
53.60078,106.9472,-1.586941,0.9798071,7.530093
53.65083,99.31824,-1.153568,0.9798071,7.523633
53.70084,89.2735,-0.7475195,0.9798071,7.491337
53.75255,99.82683,-0.4062858,0.9798071,7.446123
53.8012,104.7856,-0.227726,0.9798071,7.439664
53.85111,98.9368,-0.08919906,0.9798071,7.491337
53.90112,90.16354,0.06775562,0.9798071,7.523633
53.95102,87.23911,0.1923028,0.9898543,7.517174
54.00184,84.18755,0.3390904,0.9898543,7.523633
54.05057,81.89888,0.4350425,0.9898543,7.523633
54.10136,79.61021,0.5214629,0.9896896,7.517174
54.15131,79.99165,0.5672148,0.9898543,7.504256
54.20085,99.57254,0.670157,0.9898543,7.497797
54.25211,130.0882,0.778818,0.9900191,7.484879
54.30058,107.0743,0.8785826,0.9898543,7.439664
54.35128,101.6069,1.038079,0.9896896,7.465501
54.40085,92.07076,1.062861,0.9896896,7.510715
54.45152,89.0192,1.121322,0.9896896,7.523633
54.50145,101.4798,1.163262,0.9898543,7.523633
54.55117,104.5313,1.18995,0.9896896,7.510715
54.60111,104.9128,1.218545,0.9898543,7.491337
54.65083,89.2735,1.234432,0.9898543,7.459042
54.7006,85.45904,1.246505,0.9896896,7.420287
54.75177,82.40748,1.258579,0.9898543,7.452582
54.80079,81.26313,1.250318,0.9896896,7.497797
54.85098,80.62739,1.243328,0.9898543,7.510715
54.90143,91.56216,1.23189,0.9896896,7.510715
54.95053,127.7995,1.221723,0.9798071,7.517174
55.0016,126.0195,1.219816,0.9799718,7.510715
55.05136,104.5313,1.212191,0.9798071,7.504256
55.10129,90.79928,1.207107,0.9798071,7.491337
55.15104,89.2735,1.167074,0.9798071,7.497797
55.20056,103.8956,1.101624,0.9799718,7.446123
55.2518,106.9472,1.042527,0.9799718,7.433205
55.30091,105.6757,1.00313,0.9798071,7.491337
55.35072,90.92643,0.9675449,0.9798071,7.510715
55.40062,88.12916,0.8105901,0.9798071,7.510715
55.45159,86.85767,0.7057418,0.9798071,7.497797
55.50202,83.80611,0.5144731,0.9798071,7.47196
55.55061,82.78893,0.3778526,0.9799718,7.433205
55.60143,82.78893,0.2501282,0.9798071,7.420287
55.65143,133.0126,0.126852,0.9896896,7.452582
55.70144,118.0091,0.01692008,0.9898543,7.497797
55.75233,110.1259,-0.1012726,0.9896896,7.491337
55.80041,100.5897,-0.1775259,0.9896896,7.497797
55.8516,93.34225,-0.2461539,0.9898543,7.497797
55.90126,102.3698,-0.3332098,0.9898543,7.491337
55.95141,104.7856,-0.4069213,0.9898543,7.478419
56.00243,107.8372,-0.6032736,0.9898543,7.47196
56.05066,94.61374,-0.6502964,0.9896896,7.459042
56.10042,90.92643,-0.6814333,0.9896896,7.420287
56.15042,87.74771,-0.689694,0.9898543,7.439664
56.20103,85.45904,-0.9051097,0.9898543,7.491337
56.25218,83.04321,-1.096378,0.9898543,7.497797
56.3007,90.29069,-1.455405,0.9798071,7.497797
56.35107,108.7272,-1.656205,0.9798071,7.47196
56.40104,130.4697,-1.62062,0.9798071,7.439664
56.45081,122.9679,-1.608547,0.9798071,7.400909
56.50193,108.9815,-1.612359,0.9798071,7.420287
56.5507,104.9128,-1.633329,0.9798071,7.465501
56.60152,100.2083,-1.60664,0.9798071,7.484879
56.65118,106.6929,-1.592025,0.9798071,7.484879
56.70105,110.7616,-1.606005,0.9798071,7.491337
56.7523,98.9368,-1.578045,0.9799718,7.478419
56.80079,94.74089,-1.572962,0.9798071,7.47196
56.85134,91.30788,-1.557076,0.9798071,7.459042
56.90092,88.12916,-1.413465,0.9798071,7.459042
56.95122,86.60338,-1.353733,0.9896896,7.420287
57.00191,86.09478,-1.333399,0.9898543,7.407369
57.05153,85.58618,-1.332128,0.9898543,7.459042
57.10157,91.94361,-1.368984,0.9896896,7.484879
57.15115,132.3769,-1.421726,0.9898543,7.478419
57.20056,129.5796,-1.192331,0.9898543,7.465501
57.25257,114.4489,-0.6985903,0.9898543,7.433205
57.30116,107.8372,-0.3465541,0.9896896,7.407369
57.35105,102.8784,-0.1699005,0.9896896,7.39445
57.40076,104.7856,-0.02819646,0.9898543,7.426746
57.45159,111.0159,0.1160494,0.9898543,7.47196
57.50142,103.2598,0.25267,0.9896896,7.459042
57.55134,99.44539,0.3587892,0.9898543,7.47196
57.60114,94.86804,0.4433033,0.9898543,7.47196
57.65059,91.81647,0.5449744,0.9896896,7.465501
57.70102,88.00201,0.7051063,0.9898543,7.452582
57.75234,86.47623,0.7978813,0.9898543,7.459042
57.80114,85.84048,0.8341014,0.9898543,7.426746
57.85086,84.95044,0.8671446,0.9898543,7.39445
57.90089,86.47623,0.9491169,0.9896896,7.439664
57.95066,102.3698,1.006943,0.9896896,7.465501
58.00241,128.6896,1.070487,0.9898543,7.465501
58.05121,119.2806,1.139115,0.9898543,7.452582
58.10117,108.2186,1.165804,0.9898543,7.420287
58.15142,99.82683,1.202024,0.9896896,7.375072
58.20142,97.79247,1.222993,0.9898543,7.375072
58.25242,107.0743,1.240786,0.9898543,7.433205
58.30117,110.1259,1.256037,0.9898543,7.446123
58.35077,99.19109,1.262391,0.9898543,7.446123
58.40089,94.35944,1.258579,0.9898543,7.452582
58.45142,92.07076,1.250318,0.9898543,7.459042
58.50254,91.30788,1.23888,0.9900191,7.459042
58.55139,90.54498,1.228713,0.9898543,7.446123
58.60086,88.00201,1.207743,0.9898543,7.446123
58.65133,86.85767,1.121322,0.9898543,7.446123
58.70139,96.64812,1.013297,0.9898543,7.400909
58.7523,126.2737,0.9453043,0.9898543,7.381532
58.80129,125.638,0.8067774,0.9898543,7.433205
58.85121,110.8888,0.7572128,0.9900191,7.452582
58.9012,101.3526,0.7248051,0.9898543,7.452582
58.95117,94.86804,0.6066125,0.9896896,7.433205
59.00212,101.7341,0.5316301,0.9898543,7.407369
59.05127,104.6585,0.4871489,0.9898543,7.362154
59.10117,108.2186,0.4121665,0.9898543,7.375072
59.15102,91.68932,0.3308297,0.9896896,7.420287
59.20104,89.90925,0.2615662,0.9898543,7.446123
59.25156,86.34908,0.2062825,0.9898543,7.433205
59.30158,85.45904,0.1001634,0.9798071,7.439664
59.35085,85.07759,-0.0008723034,0.9798071,7.452582
59.40093,84.82329,-0.1940474,0.9798071,7.439664
59.45133,84.18755,-0.3827744,0.9798071,7.433205
59.50255,98.55534,-0.6642762,0.9798071,7.433205
59.55099,117.3734,-0.7348106,0.9798071,7.420287
59.60137,126.7823,-0.7322688,0.9798071,7.381532
59.65089,112.6688,-0.7462486,0.9798071,7.368613
59.70055,107.71,-0.8936717,0.9798071,7.426746
59.75213,100.5897,-0.9565807,0.9798071,7.439664
59.80155,102.7513,-0.9610288,0.9798071,7.439664
59.85074,108.2186,-1.043637,0.9798071,7.413827
59.90055,102.497,-1.211394,0.9798071,7.381532
59.95166,95.88522,-1.235541,0.9798071,7.355695
60.00241,92.07076,-1.341025,0.9799718,7.39445
60.0505,88.38345,-1.583129,0.9798071,7.426746
60.10083,85.33189,-1.667008,0.9798071,7.426746
60.15049,85.07759,-1.622526,0.9798071,7.433205
60.20155,84.82329,-1.668914,0.9798071,7.433205
60.252,83.17036,-1.666372,0.9799718,7.426746
60.30053,89.2735,-1.668914,0.9796425,7.420287
60.35116,116.229,-1.661924,0.9798071,7.426746
60.40066,128.0538,-1.607911,0.9798071,7.381532
60.45117,118.5177,-1.607276,0.9798071,7.368613
60.50216,110.1259,-1.600286,0.9798071,7.407369
60.55055,104.0227,-1.417278,0.9798071,7.426746
60.60055,99.95398,-0.8892236,0.9798071,7.413827
60.65061,106.3114,-0.5225722,0.9798071,7.400909
60.70249,108.2186,-0.2957186,0.9798071,7.375072
60.75204,96.90242,-0.1209713,0.9798071,7.336317
60.80165,92.83366,0.06267215,0.9798071,7.387991
60.85104,88.63776,0.212637,0.9798071,7.413827
60.90115,85.07759,0.3492575,0.9796425,7.420287
60.95175,84.69615,0.4604603,0.9798071,7.426746
61.00203,84.69615,0.5570478,0.9799718,7.420287
61.05148,84.44184,0.6021644,0.9799718,7.407369
61.10078,82.28033,0.7000229,0.9798071,7.39445
61.15053,111.5245,0.7514937,0.9799718,7.39445
61.20229,130.0882,0.829018,0.9799718,7.362154
61.25195,128.4353,1.022193,0.9799718,7.349236
61.3013,107.8372,1.071122,0.9796425,7.400909
61.35102,103.387,1.115604,0.9798071,7.413827
61.40125,98.30104,1.150553,0.9798071,7.407369
61.45173,104.0227,1.18169,0.9799718,7.39445
61.50237,107.9643,1.198211,0.9798071,7.375072
61.55082,109.1087,1.221087,0.9798071,7.336317
61.60076,94.35944,1.235703,0.9798071,7.342777
61.65055,91.30788,1.259214,0.9798071,7.39445
61.70254,90.16354,1.285267,0.9798071,7.407369
61.75256,89.0192,1.30433,0.9798071,7.407369
61.80057,87.74771,1.279548,0.9798071,7.413827
61.85154,85.20473,1.256672,0.9796425,7.407369
61.90157,95.88522,1.245234,0.9798071,7.39445
61.95156,125.8923,1.234432,0.9798071,7.39445
62.00156,124.3665,1.227442,0.9799718,7.381532
62.05153,108.8544,1.213462,0.9798071,7.342777
62.1013,100.5897,1.201388,0.9799718,7.362154
62.1513,92.83366,1.125135,0.9798071,7.400909
62.2023,94.99519,1.069851,0.9799718,7.400909
62.25225,105.93,1.000588,0.9798071,7.387991
62.30093,106.0571,0.8868436,0.9798071,7.368613
62.35069,93.08795,0.7502229,0.9798071,7.342777
62.40127,88.63776,0.6841368,0.9798071,7.323399
62.45255,85.20473,0.5367135,0.9798071,7.349236
62.50178,83.29751,0.4420324,0.9798071,7.39445
62.55056,82.66177,0.36006,0.9798071,7.39445
62.60054,81.89888,0.1732395,0.9798071,7.407369
62.65156,81.77173,-0.08157373,0.9799718,7.400909
62.70152,104.1499,-0.2378931,0.9798071,7.39445
62.75252,129.5796,-0.3579921,0.9799718,7.381532
62.80105,122.0779,-0.4469543,0.9798071,7.387991
62.85102,109.6173,-0.6134407,0.9796425,7.362154
62.90124,101.0983,-0.6966839,0.9798071,7.336317
62.95203,97.41101,-0.8129703,0.9798071,7.368613
63.00151,99.19109,-0.9788213,0.9798071,7.400909
63.05152,104.5313,-1.006145,0.9798071,7.387991
63.10081,106.82,-1.116077,0.9798071,7.368613
63.15093,92.32506,-1.216477,0.9796425,7.342777
63.20181,89.40065,-1.28447,0.9798071,7.310481
63.2518,86.09478,-1.29146,0.9799718,7.355695
63.30056,83.29751,-1.39885,0.9898543,7.381532
63.35102,82.40748,-1.429351,0.9898543,7.39445
63.40063,82.66177,-1.679081,0.9898543,7.39445
63.4524,82.15317,-1.668278,0.9898543,7.381532
63.50211,96.77527,-1.668278,0.9898543,7.368613
63.55174,124.2394,-1.666372,0.9896896,7.375072
63.60168,123.9851,-1.665737,0.9896896,7.342777
63.65056,111.5245,-1.666372,0.9898543,7.329859
63.70223,104.5313,-1.663195,0.9898543,7.381532
63.75164,97.41101,-1.654299,0.9898543,7.387991
63.80168,102.6241,-1.384235,0.9898543,7.368613
63.85168,106.0571,-1.06969,0.9898543,7.342777
63.90128,100.7169,-0.7055801,0.9898543,7.304022
63.95238,92.96081,-0.3948478,0.9896896,7.31694
64.00224,90.29069,-0.2309032,0.9898543,7.375072
64.05093,86.22193,-0.09873071,0.9898543,7.368613
64.10137,83.04321,0.07156828,0.9898543,7.387991
64.15101,81.51743,0.2927029,0.9898543,7.381532
64.20177,81.51743,0.3390904,0.9898543,7.375072
64.25262,80.37309,0.3892905,0.9898543,7.368613
64.30103,88.38345,0.4839717,0.9898543,7.375072
64.35168,118.0091,0.577382,0.9898543,7.323399
64.40118,127.2909,0.7514937,0.9898543,7.31694
64.45164,116.9919,0.8468105,0.9898543,7.362154
64.50174,104.5313,0.9815247,0.9898543,7.381532
64.55116,98.9368,1.052694,0.9898543,7.375072
64.60119,94.86804,1.111791,0.9898543,7.342777
64.65134,102.6241,1.14674,0.9896896,7.310481
64.70261,106.6929,1.184231,0.9898543,7.284644
64.75251,93.59654,1.209014,0.9896896,7.336317
64.80099,90.54498,1.233796,0.9896896,7.362154
64.85059,88.00201,1.252859,0.9898543,7.362154
64.90123,86.85767,1.271923,0.9896896,7.375072
64.95253,84.569,1.282725,0.9798071,7.375072
65.00255,82.40748,1.280819,0.9798071,7.362154
65.05125,84.69615,1.295434,0.9798071,7.349236
65.10105,110.5073,1.31831,0.9798071,7.342777
65.1509,127.6724,1.372958,0.9798071,7.329859
65.20228,104.1499,1.380584,0.9799718,7.297563
65.25229,94.99519,1.384396,0.9798071,7.336317
65.30061,89.78209,1.380584,0.9798071,7.368613
65.35134,99.82683,1.381219,0.9798071,7.368613
65.40079,105.5485,1.376136,0.9799718,7.355695
65.45172,104.6585,1.367875,0.9799718,7.336317
65.50159,90.67213,1.358979,0.9799718,7.310481
65.55068,88.38345,1.320217,0.9796425,7.284644
65.60079,85.20473,1.270652,0.9796425,7.304022
65.65137,82.15317,1.211555,0.9798071,7.336317
65.70276,81.26313,1.129583,0.9798071,7.362154
65.75204,81.26313,1.03236,0.9798071,7.355695
65.80153,90.54498,0.9586487,0.9798071,7.362154
65.85136,129.4525,0.7978813,0.9798071,7.362154
65.90066,114.9575,0.7578482,0.9799718,7.355695
65.95198,105.5485,0.7152735,0.9796425,7.342777
66.00279,96.01237,0.6263112,0.9798071,7.336317
66.05167,92.07076,0.5456098,0.9798071,7.323399
66.10133,100.7169,0.4763464,0.9798071,7.297563
66.1511,106.1843,0.394374,0.9798071,7.304022
66.20231,106.4386,0.3143081,0.9798071,7.355695
66.2523,89.2735,0.2660143,0.9799718,7.362154
66.30092,86.73053,0.1090595,0.9796425,7.349236
66.35091,84.569,-0.02883187,0.9798071,7.329859
66.40067,81.64457,-0.1482954,0.9798071,7.304022
66.45251,80.11879,-0.370701,0.9798071,7.271726
66.5025,84.18755,-0.6261496,0.9798071,7.297563
66.55131,91.81647,-0.7875525,0.9798071,7.342777
66.60095,129.071,-1.0125,0.9799718,7.342777
66.65166,118.8991,-1.011229,0.9799718,7.349236
66.70226,106.9472,-1.044907,0.9798071,7.355695
66.75169,98.1739,-1.140224,0.9798071,7.342777
66.80128,96.39381,-1.148485,0.9798071,7.336317
66.85178,101.0983,-1.175174,0.9799718,7.336317
66.90067,106.3114,-1.283199,0.9799718,7.310481
66.95251,98.6825,-1.318784,0.9799718,7.284644
67.00179,91.68932,-1.3137,0.9799718,7.329859
67.05151,87.23911,-1.281293,0.9798071,7.349236
67.10151,84.44184,-1.254604,0.9798071,7.342777
67.15103,82.91606,-1.157381,0.9798071,7.323399
67.2023,82.28033,-1.243801,0.9798071,7.304022
67.25222,81.77173,-1.186612,0.9798071,7.265267
67.30124,95.63092,-1.038553,0.9796425,7.278185
67.35075,130.4697,-0.7259144,0.9798071,7.342777
67.40063,127.0366,-0.4266201,0.9796425,7.336317
67.45164,111.5245,-0.2143816,0.9798071,7.342777
67.50211,108.0915,-0.06378135,0.9798071,7.342777
67.55147,99.06393,0.1255811,0.9798071,7.329859
67.60101,103.6413,0.2857131,0.9798071,7.31694
67.65086,107.71,0.4032702,0.9798071,7.31694
67.7019,103.387,0.5017642,0.9798071,7.297563
67.75162,95.12233,0.651729,0.9798071,7.284644
67.80122,91.18073,0.790256,0.9796425,7.31694
67.85138,87.62056,0.8696865,0.9798071,7.342777
67.90085,85.07759,1.013297,0.9798071,7.342777
67.95183,84.18755,1.046975,0.9799718,7.329859
68.00245,84.3147,1.050788,0.9798071,7.304022
68.05082,83.42466,1.064768,0.9798071,7.265267
68.10178,90.54498,1.080654,0.9796425,7.258807
68.15178,119.7892,1.137208,0.9798071,7.310481
68.20278,129.3253,1.186773,0.9799718,7.329859
68.25261,116.7376,1.228713,0.9798071,7.329859
68.30111,103.8956,1.261756,0.9796425,7.336317
68.35083,96.64812,1.275735,0.9798071,7.329859
68.40078,95.50377,1.300518,0.9798071,7.31694
68.45198,103.1327,1.310685,0.9798071,7.310481
68.50186,108.6001,1.303695,0.9798071,7.310481
68.55157,108.7272,1.295434,0.9798071,7.284644
68.60128,92.07076,1.283361,0.9798071,7.278185
68.65176,88.7649,1.273829,0.9798071,7.323399
68.70238,87.74771,1.264933,0.9799718,7.336317
68.75238,84.95044,1.249047,0.9798071,7.329859
68.80078,83.04321,1.18868,0.9798071,7.310481
68.85147,81.77173,1.07557,0.9798071,7.278185
68.90132,115.2118,1.014568,0.9798071,7.245889
68.95275,130.0882,0.9224283,0.9798071,7.265267
69.00224,117.7548,0.8016939,0.9799718,7.31694
69.05075,106.3114,0.7635673,0.9798071,7.323399
69.10175,96.64812,0.7292534,0.9796425,7.329859
69.15175,93.46941,0.658719,0.9798071,7.329859
69.20221,99.69969,0.5678502,0.9799718,7.323399
69.25244,105.0399,0.4706274,0.9798071,7.31694
69.30105,105.8028,0.3473511,0.9796425,7.310481
69.35061,91.68932,0.2907966,0.9798071,7.297563
69.4015,85.45904,0.2456801,0.9798071,7.258807
69.45206,83.04321,0.1891255,0.9798071,7.278185
69.50185,81.39028,0.07029747,0.9798071,7.323399
69.55119,81.89888,0.03979605,0.9798071,7.323399
69.60152,81.51743,-0.1362219,0.9799718,7.31694
69.6515,80.37309,-0.273478,0.9798071,7.291103
69.70221,109.363,-0.4393289,0.9798071,7.258807
69.75268,131.3597,-0.6547446,0.9798071,7.23943
69.80104,124.4937,-0.6801624,0.9798071,7.284644
69.85155,109.4901,-0.7221017,0.9796425,7.310481
69.90176,102.3698,-0.7634056,0.9798071,7.310481
69.95202,96.64812,-0.7703955,0.9798071,7.323399
70.00273,102.8784,-0.8650767,0.9798071,7.31694
70.05097,106.5657,-0.9216312,0.9798071,7.304022
70.10072,106.9472,-0.9845402,0.9798071,7.291103
70.15102,92.96081,-1.037917,0.9798071,7.284644
70.20227,88.5106,-1.074773,0.9798071,7.265267
70.2522,84.95044,-1.086211,0.9798071,7.258807
70.30074,83.55181,-1.062064,0.9796425,7.278185
70.35143,82.40748,-1.124973,0.9798071,7.31694
70.40114,82.02603,-1.486541,0.9798071,7.31694
70.45227,84.569,-1.6848,0.9798071,7.284644
70.50244,111.2702,-1.658747,0.9798071,7.258807
70.55071,124.4937,-1.661924,0.9796425,7.23943
70.60122,112.5417,-1.661924,0.9796425,7.258807
70.65109,111.7788,-1.637777,0.9796425,7.291103
70.70222,105.6757,-1.304169,0.9798071,7.304022
70.75222,99.44539,-0.8777856,0.9798071,7.304022
70.80131,106.3114,-0.5301975,0.9798071,7.310481
70.85114,109.6173,-0.3370225,0.9796425,7.304022
70.90096,97.53816,-0.1787967,0.9798071,7.297563
70.95226,96.26666,-0.0250192,0.9798071,7.291103
71.00283,92.07076,0.1872192,0.9799718,7.284644
71.05102,91.81647,0.3200271,0.9796425,7.265267
71.10187,88.12916,0.4388551,0.9799718,7.232971
71.15189,85.84048,0.5189212,0.9798071,7.258807
71.20232,84.3147,0.5417972,0.9799718,7.284644
71.25222,85.20473,0.5989872,0.9798071,7.310481
71.30084,117.119,0.7349722,0.9796425,7.310481
71.35168,129.9611,0.8029647,0.9796425,7.297563
71.40075,122.5864,1.001859,0.9798071,7.265267
71.45269,109.4901,1.090186,0.9798071,7.232971
71.50236,102.7513,1.139115,0.9798071,7.232971
71.55114,97.79247,1.171522,0.9796425,7.271726
71.60169,104.7856,1.206472,0.9799718,7.297563
71.65071,109.363,1.232525,0.9796425,7.291103
71.70197,97.79247,1.261756,0.9798071,7.297563
71.75168,94.35944,1.278277,0.9798071,7.297563
71.80119,91.68932,1.31132,0.9799718,7.291103
71.85068,89.0192,1.331654,0.9796425,7.278185
71.90143,86.60338,1.344999,0.9798071,7.284644
71.95164,84.95044,1.320217,0.9798071,7.252348
72.00195,84.69615,1.299247,0.9799718,7.232971
72.05184,108.6001,1.284632,0.9798071,7.258807
72.10168,127.4181,1.263662,0.9798071,7.284644
72.15134,126.6552,1.260485,0.9798071,7.271726
72.20196,106.1843,1.247776,0.9799718,7.252348
72.25201,97.15671,1.236973,0.9798071,7.226512
72.30171,93.08795,1.203295,0.9796425,7.220053
72.35146,105.4214,1.143563,0.9798071,7.265267
72.40109,108.9815,1.088279,0.9798071,7.284644
72.45269,106.5657,1.015839,0.9798071,7.284644
72.50243,94.61374,0.9624614,0.9798071,7.291103
72.55125,92.57936,0.7940686,0.9798071,7.284644
72.60125,89.65494,0.713367,0.9798071,7.278185
72.65083,88.12916,0.6326658,0.9796425,7.265267
72.70208,86.60338,0.4731691,0.9798071,7.245889
72.75225,84.18755,0.3181207,0.9798071,7.220053
72.801,94.35944,0.1999281,0.9798071,7.213593
72.85169,124.6208,0.04487965,0.9798071,7.265267
72.90068,128.3081,-0.04916611,0.9796425,7.271726
72.95225,113.1774,-0.09555358,0.9798071,7.284644
73.00248,106.1843,-0.1616398,0.9798071,7.278185
73.05131,97.02956,-0.1984956,0.9798071,7.258807
73.10096,95.50377,-0.267759,0.9798071,7.232971
73.15082,105.1671,-0.3783264,0.9796425,7.200675
73.20197,105.2942,-0.4552151,0.9798071,7.232971
73.25266,93.2151,-0.5962837,0.9799718,7.271726
73.30151,89.2735,-0.6394939,0.9796425,7.271726
73.35146,86.09478,-0.6464838,0.9796425,7.278185
73.40146,83.04321,-0.6712662,0.9798071,7.271726
73.4528,81.51743,-0.6769851,0.9799718,7.258807
73.50233,81.51743,-0.7322688,0.9799718,7.252348
73.5518,81.64457,-1.038553,0.9798071,7.232971
73.60132,82.78893,-1.346743,0.9798071,7.207134
73.65099,106.82,-1.560253,0.9798071,7.213593
73.70208,127.1638,-1.618714,0.9798071,7.252348
73.75279,122.205,-1.566607,0.9798071,7.271726
73.80129,111.1431,-1.564701,0.9798071,7.271726
73.85099,104.9128,-1.565336,0.9798071,7.265267
73.90097,98.9368,-1.445873,0.9798071,7.23943
73.95233,104.0227,-1.251427,0.9796425,7.226512
74.0022,107.8372,-0.9737377,0.9798071,7.220053
74.05162,107.4557,-0.6642762,0.9798071,7.245889
74.10133,94.61374,-0.409463,0.9798071,7.258807
74.15124,89.90925,-0.2016727,0.9798071,7.271726
74.20245,87.36626,-0.004049561,0.9799718,7.265267
74.25219,84.3147,0.165614,0.9798071,7.252348
74.30096,83.93326,0.3130372,0.9798071,7.245889
74.35143,82.78893,0.3950095,0.9798071,7.232971
74.40157,82.02603,0.4706274,0.9799718,7.200675
74.45171,89.14634,0.5437035,0.9798071,7.200675
74.5022,123.9851,0.6809596,0.9796425,7.226512
74.55094,123.9851,0.7966102,0.9798071,7.245889
74.60094,109.8716,0.9637322,0.9798071,7.265267
74.65085,104.7856,1.070487,0.9798071,7.271726
74.70203,97.28386,1.121322,0.9798071,7.265267
74.75272,98.04675,1.173429,0.9798071,7.245889
74.80157,103.0055,1.222358,0.9799718,7.220053
74.85081,106.82,1.261756,0.9798071,7.187757
74.90141,93.72369,1.294163,0.9798071,7.194216
74.95176,89.5278,1.364062,0.9796425,7.232971
75.0027,85.96764,1.409179,0.9799718,7.258807
75.05105,83.80611,1.423159,0.9798071,7.252348
75.10085,83.17036,1.426336,0.9798071,7.265267
75.1517,82.91606,1.425065,0.9798071,7.252348
75.20293,83.93326,1.422523,0.9799718,7.245889
75.25269,97.66531,1.419981,0.9799718,7.232971
75.30191,125.1294,1.419981,0.9796425,7.220053
75.35145,114.3218,1.419981,0.9796425,7.181297
75.4007,100.4626,1.421252,0.9798071,7.187757
75.4521,90.67213,1.419346,0.9798071,7.220053
75.50257,89.78209,1.413627,0.9798071,7.23943
75.55167,99.06393,1.408543,0.9799718,7.258807
75.6017,105.93,1.402189,0.9798071,7.265267
75.65141,94.48659,1.390115,0.9798071,7.252348
75.70226,89.65494,1.378042,0.9798071,7.232971
75.75274,85.33189,1.291621,0.9798071,7.207134
75.80093,82.91606,1.221087,0.9799718,7.168379
75.85119,82.15317,1.13149,0.9798071,7.194216
75.90169,80.88168,1.020922,0.9798071,7.23943
75.95184,85.96764,0.8607903,0.9798071,7.23943
76.00218,119.2806,0.7178152,0.9798071,7.252348
76.05173,128.8167,0.6885849,0.9799718,7.252348
76.10144,106.3114,0.5653086,0.9798071,7.23943
76.15131,97.66531,0.5138376,0.9798071,7.220053
76.20206,91.30788,0.4433033,0.9799718,7.207134
76.25231,96.26666,0.3568828,0.9799718,7.194216
76.30147,102.1155,0.2901612,0.9798071,7.194216
76.35119,104.4042,0.1865838,0.9798071,7.213593
76.4009,91.43503,0.09317344,0.9796425,7.252348
76.45288,85.33189,-0.04026985,0.9798071,7.252348
76.50232,84.44184,-0.141941,0.9799718,7.245889
76.55145,83.67896,-0.14766,0.9798071,7.220053
76.60146,82.53461,-0.3109692,0.9798071,7.194216
76.65108,81.39028,-0.6077217,0.9798071,7.16192
76.70221,89.5278,-0.798355,0.9798071,7.207134
76.7522,124.3665,-1.028386,0.9798071,7.232971
76.80095,119.2806,-1.105275,0.9796425,7.23943
76.85168,108.2186,-1.131328,0.9798071,7.23943
76.90121,102.6241,-1.222196,0.9796425,7.232971
76.95274,94.48659,-1.395673,0.9798071,7.220053
77.00273,95.63092,-1.374703,0.9798071,7.213593
77.0514,102.6241,-1.447144,0.9798071,7.194216
77.10147,104.9128,-1.586306,0.9796425,7.187757
77.15094,90.67213,-1.574233,0.9798071,7.207134
77.20221,86.98483,-1.609818,0.9799718,7.245889
77.2522,83.80611,-1.501792,0.9799718,7.23943
77.30166,81.26313,-1.144672,0.9798071,7.220053
77.35139,79.3559,-0.9165477,0.9798071,7.200675
77.40119,79.10161,-0.7519676,0.9798071,7.16192
77.45245,78.84731,-0.6445775,0.9796425,7.174838
77.50196,108.4729,-0.4081922,0.9798071,7.220053
77.55169,128.0538,-0.222007,0.9798071,7.232971
77.60172,108.6001,-0.01167489,0.9799718,7.232971
77.65147,105.93,0.2208977,0.9798071,7.232971
77.7022,100.4626,0.3486221,0.9798071,7.226512
77.75196,94.61374,0.469992,0.9798071,7.213593
77.80072,98.42819,0.5932681,0.9798071,7.200675
77.85072,105.8028,0.7565774,0.9798071,7.194216
77.90189,96.39381,0.8379143,0.9798071,7.174838
77.95178,90.41783,1.012026,0.9796425,7.174838
78.00217,87.36626,1.081925,0.9799718,7.232971
78.05094,85.45904,1.128948,0.9796425,7.23943
78.10139,81.89888,1.169616,0.9798071,7.232971
78.15096,80.75454,1.187409,0.9798071,7.213593
78.20218,79.10161,1.191857,0.9798071,7.194216
78.25214,79.61021,1.205201,0.9798071,7.16192
78.3009,112.0331,1.219181,0.9796425,7.174838
78.35194,127.6724,1.246505,0.9796425,7.213593
78.40142,105.0399,1.26811,0.9796425,7.220053
78.45229,96.52097,1.31831,0.9798071,7.23943
78.50175,89.40065,1.386303,0.9799718,7.226512
78.55142,89.65494,1.402824,0.9798071,7.213593
78.60138,98.04675,1.417439,0.9798071,7.200675
78.65108,105.2942,1.419981,0.9798071,7.200675
78.70292,91.81647,1.417439,0.9798071,7.181297
78.75216,87.62056,1.413627,0.9798071,7.168379
78.80169,86.09478,1.391386,0.9798071,7.213593
78.85147,82.91606,1.378677,0.9799718,7.23943
78.90105,80.37309,1.310685,0.9798071,7.226512
78.95216,79.10161,1.221723,0.9798071,7.220053
79.00214,89.5278,1.134667,0.9799718,7.194216
79.05154,122.9679,1.092727,0.9798071,7.168379
79.10091,119.1534,1.048246,0.9798071,7.149002
79.15147,104.9128,1.006307,0.9796425,7.194216
79.20245,96.90242,0.965003,0.9798071,7.213593
79.25204,87.87486,0.8048712,0.9798071,7.226512
79.30129,96.26666,0.7349722,0.9798071,7.226512
79.35097,103.387,0.6917621,0.9798071,7.213593
79.40081,103.6413,0.5767466,0.9798071,7.200675
79.45204,89.2735,0.5309945,0.9798071,7.194216
79.50277,82.91606,0.4401261,0.9798071,7.181297
79.55083,81.13599,0.3626019,0.9796425,7.155461
79.60084,79.22876,0.2888903,0.9796425,7.187757
79.65085,78.46587,0.1135077,0.9796425,7.220053
79.702,78.46587,-0.1120752,0.9798071,7.226512
79.75294,81.64457,-0.2359868,0.9796425,7.213593
79.80154,128.3081,-0.3662528,0.9799718,7.187757
79.85115,118.6448,-0.4069213,0.9798071,7.16192
79.90092,104.277,-0.4463189,0.9798071,7.155461
79.9522,96.77527,-0.6070862,0.9798071,7.200675
80.00222,94.35944,-0.678256,0.9799718,7.207134
80.05096,96.13953,-0.7227372,0.9798071,7.220053
80.10083,100.0811,-0.8904945,0.9798071,7.220053
80.15172,96.13953,-0.9997909,0.9798071,7.207134
80.2022,90.92643,-1.038553,0.9798071,7.200675
80.25213,85.71333,-1.077951,0.9798071,7.194216
80.30096,83.29751,-1.101462,0.9796425,7.181297
80.35116,79.99165,-1.130057,0.9798071,7.16192
80.40107,79.10161,-1.566607,0.9796425,7.168379
80.45215,82.40748,-1.690519,0.9798071,7.220053
80.50216,124.6208,-1.66383,0.9796425,7.226512
80.55145,131.7411,-1.486541,0.9798071,7.207134
80.60143,114.8304,-0.8930362,0.9799718,7.187757
80.65159,105.0399,-0.4418707,0.9798071,7.168379
80.70295,97.79247,-0.2461539,0.9798071,7.149002
80.75293,93.59654,-0.08919906,0.9798071,7.187757
80.80198,95.24948,0.1058824,0.9798071,7.200675
80.85193,101.7341,0.2812649,0.9798071,7.213593
80.90113,94.74089,0.4261462,0.9796425,7.207134
80.95218,90.79928,0.5672148,0.9798071,7.200675
81.00212,86.09478,0.7419621,0.9799718,7.194216
81.05188,84.3147,0.8296534,0.9798071,7.181297
81.10188,81.13599,0.9916919,0.9796425,7.174838
81.15083,79.48306,1.039985,0.9798071,7.149002
81.20258,78.84731,1.046975,0.9798071,7.187757
81.25188,100.0811,1.070487,0.9799718,7.213593
81.30193,128.181,1.127677,0.9798071,7.213593
81.35142,125.2566,1.182961,0.9798071,7.200675
81.40112,105.6757,1.243328,0.9798071,7.181297
81.45237,99.44539,1.295434,0.9798071,7.16192
81.50243,91.68932,1.341186,0.9798071,7.149002
81.55131,92.32506,1.392657,0.9798071,7.174838
81.60196,101.9884,1.409179,0.9798071,7.187757
81.65162,101.8612,1.419981,0.9798071,7.207134
81.70227,92.19792,1.4257,0.9799718,7.207134
81.75218,87.36626,1.435867,0.9798071,7.200675
81.80191,85.96764,1.43968,0.9799718,7.187757
81.85194,82.53461,1.440315,0.9799718,7.187757
81.90165,81.13599,1.4257,0.9798071,7.168379
81.953,82.02603,1.39647,0.9798071,7.155461
82.00278,90.29069,1.339915,0.9798071,7.174838
82.05141,122.5864,1.300518,0.9798071,7.207134
82.10141,121.5692,1.297976,0.9798071,7.187757
82.15101,105.4214,1.266204,0.9798071,7.168379
82.20203,93.72369,1.201388,0.9798071,7.149002
82.2519,89.0192,1.154366,0.9798071,7.142543
82.3014,99.31824,1.121958,0.9798071,7.187757
82.3509,104.6585,1.055236,0.9796425,7.200675
82.40203,91.68932,1.003765,0.9798071,7.200675
82.45182,88.38345,0.9389498,0.9798071,7.207134
82.5029,85.71333,0.7724634,0.9798071,7.200675
82.55167,85.07759,0.7337014,0.9798071,7.194216
82.60166,82.78893,0.623134,0.9798071,7.187757
82.65111,80.37309,0.4375843,0.9798071,7.187757
82.7029,85.33189,0.2895258,0.9798071,7.155461
82.75256,101.7341,0.1465507,0.9796425,7.155461
82.80204,128.5624,0.002304837,0.9798071,7.200675
82.85182,123.8579,-0.07712567,0.9799718,7.200675
82.90166,106.3114,-0.1298675,0.9796425,7.187757
82.95261,95.63092,-0.1997664,0.9798071,7.16192
83.00285,91.94361,-0.3033439,0.9798071,7.136083
83.05103,101.6069,-0.3897643,0.9798071,7.123165
83.10165,104.277,-0.563876,0.9798071,7.168379
83.15134,103.5141,-0.6680889,0.9796425,7.187757
83.20203,89.2735,-0.7329043,0.9798071,7.187757
83.25208,85.20473,-0.8739729,0.9798071,7.194216
83.30141,82.28033,-0.958487,0.9796425,7.194216
83.351,81.13599,-1.013771,0.9798071,7.187757
83.40202,80.37309,-1.352463,0.9798071,7.187757
83.45302,84.44184,-1.672091,0.9798071,7.194216
83.5029,124.1122,-1.65684,0.9798071,7.142543
83.55136,127.7995,-1.651757,0.9798071,7.16192
83.60101,116.7376,-1.649215,0.9798071,7.168379
83.65192,109.4901,-1.64985,0.9798071,7.155461
83.70302,101.9884,-1.649215,0.9798071,7.142543
83.7529,98.1739,-1.649215,0.9798071,7.129624
83.80129,102.1155,-1.64985,0.9799718,7.136083
83.85093,105.8028,-1.650486,0.9798071,7.155461
83.90175,107.71,-1.459217,0.9796425,7.168379
83.95238,94.10515,-0.9419655,0.9798071,7.194216
84.00272,89.65494,-0.5435418,0.9798071,7.194216
84.05117,87.36626,-0.3039793,0.9798071,7.207134
84.10111,86.47623,-0.1127106,0.9798071,7.200675
84.15112,85.20473,-0.01040396,0.9799718,7.187757
84.20191,81.39028,0.1033405,0.9798071,7.168379
84.252,84.0604,0.1973862,0.9798071,7.142543
84.30137,109.6173,0.3403613,0.9796425,7.103787
84.35101,128.9439,0.4846072,0.9798071,7.123165
84.40193,111.7788,0.6059771,0.9799718,7.142543
84.45261,104.5313,0.7629319,0.9798071,7.149002
84.50189,98.30104,0.8525293,0.9798071,7.155461
84.55187,95.24948,1.015203,0.9798071,7.155461
84.60115,101.0983,1.061591,0.9798071,7.16192
84.65089,104.4042,1.118145,0.9798071,7.174838
84.70297,102.2427,1.162626,0.9798071,7.194216
84.75239,89.90925,1.205201,0.9798071,7.194216
84.80186,86.73053,1.249047,0.9799718,7.187757
84.85168,84.3147,1.272558,0.9798071,7.181297
84.90142,81.51743,1.324665,0.9798071,7.168379
84.95289,79.99165,1.355166,0.9798071,7.168379
85.00235,79.22876,1.372958,0.9799718,7.155461
85.05093,79.99165,1.384396,0.9799718,7.123165
85.10194,100.7169,1.393928,0.9798071,7.155461
85.15118,125.7652,1.400282,0.9796425,7.181297
85.20186,101.0983,1.407272,0.9798071,7.181297
85.25193,94.61374,1.411721,0.9798071,7.168379
85.3014,86.98483,1.408543,0.9798071,7.142543
85.35115,95.12233,1.406002,0.9798071,7.116706
85.40091,103.5141,1.398376,0.9796425,7.097328
85.45293,104.4042,1.388209,0.9798071,7.129624
85.50286,88.63776,1.366604,0.9798071,7.181297
85.552,87.11198,1.299882,0.9798071,7.181297
85.60165,86.09478,1.233796,0.9799718,7.181297
85.65164,83.80611,1.174064,0.9799718,7.181297
85.70188,81.51743,1.078112,0.9798071,7.174838
85.75259,83.17036,0.9535651,0.9796425,7.16192
85.80173,114.1946,0.7584836,0.9799718,7.16192
85.85117,128.181,0.6968456,0.9798071,7.149002
85.90118,113.3046,0.6053415,0.9796425,7.110247
85.95264,98.30104,0.5392554,0.9798071,7.149002
86.00199,90.41783,0.4305944,0.9799718,7.174838
86.05138,85.84048,0.3651436,0.9796425,7.168379
86.1011,98.1739,0.2831713,0.9798071,7.16192
86.15201,101.6069,0.1592596,0.9798071,7.149002
86.20289,91.94361,0.03407706,0.9798071,7.136083
86.2528,84.569,-0.09555358,0.9798071,7.097328
86.30152,83.04321,-0.1699005,0.9796425,7.110247
86.35188,81.00883,-0.3370225,0.9798071,7.155461
86.40113,80.50024,-0.6757143,0.9799718,7.174838
86.45205,78.33871,-0.8854109,0.9798071,7.168379
86.50305,81.39028,-1.119254,0.9798071,7.174838
86.55174,93.46941,-1.309252,0.9798071,7.168379
86.60178,124.1122,-1.325138,0.9798071,7.155461
86.65122,107.4557,-1.357546,0.9798071,7.142543
86.70244,99.69969,-1.54119,0.9798071,7.142543
86.75226,90.54498,-1.638413,0.9796425,7.123165
86.80088,92.83366,-1.623162,0.9798071,7.110247
86.85204,99.31824,-1.657476,0.9798071,7.155461
86.90151,102.2427,-1.656205,0.9798071,7.174838
86.95305,89.5278,-1.64985,0.9798071,7.168379
87.00277,85.33189,-1.651757,0.9798071,7.149002
87.05117,82.66177,-1.644132,0.9798071,7.129624
87.10188,81.51743,-1.644132,0.9796425,7.097328
87.15178,79.86449,-1.646038,0.9796425,7.103787
87.2026,87.36626,-1.643496,0.9798071,7.155461
87.25201,104.7856,-1.635235,0.9798071,7.16192
87.30134,127.0366,-1.639048,0.9798071,7.16192
87.35177,116.229,-1.647944,0.9798071,7.174838
87.40201,102.497,-1.649215,0.9798071,7.16192
87.45236,94.10515,-1.635871,0.9798071,7.155461
87.50304,91.43503,-1.234905,0.9799718,7.142543
87.55116,93.978,-0.8091576,0.9796425,7.123165
87.601,102.497,-0.4526733,0.9799718,7.103787
87.65156,93.85085,-0.2486956,0.9798071,7.110247
87.70291,87.49342,-0.107627,0.9798071,7.136083
87.75292,83.80611,0.003575764,0.9798071,7.16192
87.80161,81.51743,0.1999281,0.9798071,7.168379
87.85192,78.97446,0.2596599,0.9798071,7.168379
87.90192,77.57583,0.3263815,0.9796425,7.16192
87.95234,87.74771,0.4096248,0.9798071,7.136083
88.0031,123.2222,0.5278174,0.9796425,7.116706
88.05137,125.638,0.7101898,0.9798071,7.08441
88.10112,103.8956,0.8169446,0.9798071,7.136083
88.15099,98.04675,0.9268764,0.9798071,7.155461
88.20189,88.38345,1.055872,0.9798071,7.16192
88.25239,93.59654,1.125135,0.9798071,7.16192
88.30091,100.5897,1.168981,0.9798071,7.149002
88.35172,103.2598,1.205837,0.9798071,7.142543
88.40187,89.65494,1.244599,0.9798071,7.129624
88.45239,85.07759,1.264297,0.9798071,7.116706
88.50224,83.29751,1.284632,0.9798071,7.097328
88.55185,82.91606,1.301789,0.9796425,7.110247
88.60184,79.61021,1.312591,0.9798071,7.142543
88.65116,84.3147,1.357708,0.9798071,7.168379
88.70241,120.9335,1.408543,0.9798071,7.168379
88.75299,122.3321,1.424429,0.9798071,7.16192
88.8017,102.3698,1.445399,0.9798071,7.155461
88.85088,92.57936,1.463191,0.9798071,7.142543
88.90103,85.33189,1.471452,0.9798071,7.129624
88.95227,93.46941,1.473994,0.9798071,7.097328
89.00227,102.8784,1.468275,0.9798071,7.090869
89.05184,103.6413,1.465098,0.9798071,7.110247
89.10133,92.96081,1.459379,0.9796425,7.149002
89.15112,85.96764,1.452389,0.9798071,7.16192
89.20253,83.93326,1.445399,0.9798071,7.16192
89.25209,81.77173,1.429513,0.9798071,7.168379
89.30189,81.00883,1.405366,0.9796425,7.16192
89.35186,102.2427,1.348176,0.9798071,7.142543
89.40173,125.8923,1.234432,0.9798071,7.142543
89.45237,114.4489,1.216639,0.9798071,7.136083
89.50256,100.7169,1.207107,0.9798071,7.103787
89.55111,91.18073,1.195669,0.9796425,7.110247
89.60111,88.12916,1.155636,0.9799718,7.16192
89.65175,102.7513,1.13276,0.9798071,7.168379
89.70234,103.7684,1.113062,0.9798071,7.16192
89.75286,93.46941,1.067945,0.9796425,7.136083
89.80136,85.84048,1.00313,0.9798071,7.110247
89.85101,82.53461,0.9637322,0.9798071,7.08441
89.90102,80.37309,0.7756407,0.9798071,7.110247
89.952,79.22876,0.5900908,0.9798071,7.168379
90.00203,82.78893,0.4496577,0.9798071,7.16192
90.05186,114.4489,0.3543411,0.9798071,7.168379
90.1013,127.0366,0.2901612,0.9796425,7.16192
90.15202,113.5589,0.2520346,0.9798071,7.142543
90.20267,105.4214,0.2088244,0.9799718,7.136083
90.25224,95.37663,0.1027051,0.9796425,7.129624
90.30199,94.61374,-0.009768555,0.9798071,7.116706
90.35132,105.2942,-0.09046999,0.9796425,7.110247
90.40173,105.93,-0.1502018,0.9798071,7.149002
90.45282,94.2323,-0.1444828,0.9798071,7.174838
90.50253,88.38345,-0.1737131,0.9799718,7.168379
90.55211,87.23911,-0.2512375,0.9798071,7.155461
90.60121,85.33189,-0.3611692,0.9799718,7.129624
90.65158,83.17036,-0.7093928,0.9798071,7.103787
90.70251,84.0604,-0.9966136,0.9798071,7.08441
90.75301,109.7444,-1.194237,0.9798071,7.136083
90.8021,128.4353,-1.393131,0.9798071,7.149002
90.85144,122.5864,-1.424268,0.9798071,7.16192
90.90115,108.4729,-1.422997,0.9798071,7.16192
90.95222,101.7341,-1.57741,0.9798071,7.155461
91.00195,96.64812,-1.614266,0.9798071,7.142543
91.05134,99.82683,-1.632058,0.9798071,7.129624
91.10148,105.8028,-1.680987,0.9798071,7.116706
91.15098,94.61374,-1.674633,0.9798071,7.110247
91.20214,90.54498,-1.674633,0.9798071,7.110247
91.25256,87.23911,-1.673997,0.9798071,7.16192
91.30215,84.82329,-1.678445,0.9798071,7.168379
91.35175,82.28033,-1.654934,0.9798071,7.16192
91.40147,80.75454,-1.657476,0.9798071,7.149002
91.45206,79.99165,-1.592025,0.9798071,7.123165
91.5023,86.34908,-1.388683,0.9798071,7.097328
91.5511,100.5897,-1.063971,0.9796425,7.08441
91.60197,126.9095,-0.5924711,0.9798071,7.129624
91.65175,111.1431,-0.3567212,0.9798071,7.149002
91.70274,105.5485,-0.1692651,0.9798071,7.155461
91.75235,97.02956,-0.03328005,0.9798071,7.16192
91.80097,97.9196,0.1471862,0.9799718,7.149002
91.85186,104.9128,0.3022346,0.9798071,7.142543
91.90096,106.1843,0.4407615,0.9799718,7.129624
91.95214,91.94361,0.5748402,0.9798071,7.116706
92.00214,87.62056,0.759119,0.9798071,7.097328
92.05183,84.569,0.841727,0.9798071,7.123165
92.10207,82.15317,0.9656386,0.9798071,7.168379
92.15165,81.39028,1.058413,0.9796425,7.16192
92.20285,81.00883,1.068581,0.9798071,7.149002
92.25235,81.89888,1.093998,0.9798071,7.123165
92.3016,87.36626,1.121958,0.9796425,7.097328
92.35184,125.2566,1.157543,0.9798071,7.08441
92.40138,118.1362,1.206472,0.9798071,7.129624
92.45238,102.6241,1.232525,0.9798071,7.142543
92.50296,94.74089,1.261756,0.9796425,7.155461
92.5516,90.16354,1.315768,0.9798071,7.149002
92.60159,101.3526,1.376771,0.9798071,7.136083
92.65106,104.5313,1.404731,0.9798071,7.123165
92.70287,92.83366,1.423159,0.9798071,7.123165
92.75258,88.12916,1.433326,0.9798071,7.110247
92.80138,83.55181,1.428242,0.9799718,7.103787
92.85139,80.75454,1.424429,0.9798071,7.155461
92.90211,79.48306,1.41045,0.9796425,7.16192
92.95312,79.22876,1.39647,0.9798071,7.155461
93.00294,80.75454,1.372323,0.9798071,7.136083
93.05164,108.9815,1.34627,0.9798071,7.116706
93.10139,123.7308,1.277642,0.9796425,7.08441
93.15112,109.1087,1.229348,0.9798071,7.097328
93.20206,92.7065,1.191857,0.9798071,7.129624
93.25211,85.96764,1.132125,0.9798071,7.149002
93.30167,90.16354,1.098446,0.9796425,7.155461
93.35163,97.66531,1.06032,0.9798071,7.149002
93.40155,102.6241,1.00313,0.9798071,7.136083
93.4529,88.12916,0.9573777,0.9798071,7.129624
93.50243,84.18755,0.8347371,0.9798071,7.116706
93.55111,83.42466,0.697481,0.9798071,7.116706
93.60107,80.37309,0.6110606,0.9798071,7.110247
93.65135,78.08442,0.4267817,0.9796425,7.16192
93.70282,77.32152,0.2596599,0.9798071,7.168379
93.75246,91.94361,0.1236747,0.9798071,7.16192
93.80207,124.748,-0.009768555,0.9798071,7.142543
93.85107,123.095,-0.079032,0.9798071,7.123165
93.90209,102.2427,-0.1368575,0.9798071,7.090869
93.95222,93.34225,-0.2131107,0.9798071,7.097328
94.00222,89.0192,-0.3401996,0.9798071,7.142543
94.05156,96.13953,-0.5162177,0.9798071,7.149002
94.10163,101.0983,-0.6502964,0.9798071,7.168379
94.15122,93.08795,-0.7138409,0.9796425,7.155461
94.2025,85.07759,-0.8504615,0.9796425,7.155461
94.25224,83.80611,-1.006145,0.9798071,7.142543
94.30138,80.88168,-0.9915301,0.9798071,7.142543
94.35191,79.86449,-1.316242,0.9796425,7.116706
94.40187,77.70296,-1.621255,0.9799718,7.123165
94.45322,79.22876,-1.676539,0.9798071,7.174838
94.50258,113.8132,-1.671456,0.9798071,7.174838
94.5515,113.9403,-1.669549,0.9798071,7.16192
94.60209,104.5313,-1.672091,0.9798071,7.142543
94.65183,98.42819,-1.668914,0.9798071,7.123165
94.70232,89.5278,-1.665737,0.9796425,7.097328
94.75263,91.18073,-1.662559,0.9798071,7.142543
94.80174,99.57254,-1.55644,0.9798071,7.155461
94.85101,101.6069,-1.205039,0.9799718,7.168379
94.90217,88.63776,-0.6795269,0.9798071,7.174838
94.95201,83.67896,-0.4240783,0.9798071,7.168379
95.00199,80.88168,-0.2582274,0.9796425,7.16192
95.05199,78.46587,-0.1044498,0.9798071,7.155461
95.10159,76.43149,-0.03200912,0.9799718,7.149002
95.15175,79.86449,0.08808986,0.9796425,7.123165
95.20298,106.9472,0.2043762,0.9798071,7.116706
95.25229,127.0366,0.3397258,0.9798071,7.155461
95.30108,114.5761,0.491597,0.9798071,7.181297
95.35178,101.0983,0.6250404,0.9798071,7.187757
95.40208,92.19792,0.7553064,0.9798071,7.181297
95.4531,88.12916,0.8163092,0.9798071,7.168379
95.50307,94.61374,0.960555,0.9796425,7.149002
95.55152,101.2255,1.054601,0.9796425,7.129624
95.60208,93.2151,1.109884,0.9798071,7.149002
95.65205,87.87486,1.163262,0.9796425,7.187757
95.70285,83.17036,1.194399,0.9798071,7.181297
95.75234,81.64457,1.2249,0.9796425,7.200675
95.80174,79.99165,1.23189,0.9798071,7.194216
95.85162,79.3559,1.23888,0.9798071,7.187757
95.90184,79.99165,1.251589,0.9798071,7.174838
95.95294,114.1946,1.285903,0.9799718,7.174838
96.00265,107.71,1.342457,0.9798071,7.174838
96.0518,96.13953,1.398376,0.9798071,7.155461
96.1011,86.09478,1.417439,0.9796425,7.168379
96.15192,85.20473,1.422523,0.9798071,7.213593
96.20222,93.59654,1.421888,0.9798071,7.213593
96.2522,101.2255,1.417439,0.9798071,7.194216
96.30112,89.78209,1.41045,0.9798071,7.174838
96.35143,86.73053,1.392022,0.9798071,7.142543
96.40149,82.66177,1.383126,0.9798071,7.155461
96.45261,80.88168,1.308779,0.9798071,7.207134
96.50257,78.46587,1.251589,0.9796425,7.213593
96.55208,78.46587,1.139115,0.9798071,7.226512
96.6021,81.51743,1.097811,0.9798071,7.226512
96.65107,122.9679,1.066674,0.9798071,7.213593
96.70209,101.4798,1.044434,0.9798071,7.200675
96.75282,91.05358,1.022193,0.9796425,7.200675
96.80103,85.58618,0.9592841,0.9799718,7.187757
96.85198,92.57936,0.7934332,0.9798071,7.181297
96.90134,99.31824,0.7216278,0.9796425,7.23943
96.95267,102.6241,0.6962102,0.9798071,7.252348
97.00261,89.65494,0.6027998,0.9798071,7.252348
97.05212,83.93326,0.5100249,0.9798071,7.23943
97.10174,80.75454,0.4718983,0.9796425,7.220053
97.15129,78.46587,0.2958802,0.9798071,7.200675
97.20216,77.57583,0.1243102,0.9798071,7.213593
97.25217,85.96764,-0.0974599,0.9798071,7.258807
97.30154,122.7136,-0.2340805,0.9798071,7.265267
97.35211,122.9679,-0.3560858,0.9798071,7.278185
97.40109,104.9128,-0.4711012,0.9799718,7.278185
97.45233,97.28386,-0.7024029,0.9798071,7.278185
97.50233,90.41783,-0.8250437,0.9798071,7.265267
97.55218,90.79928,-0.9953427,0.9798071,7.278185
97.60179,101.2255,-1.097649,0.9798071,7.258807
97.65173,97.15671,-1.159923,0.9798071,7.252348
97.70285,90.79928,-1.128151,0.9798071,7.304022
97.75279,86.47623,-1.191695,0.9798071,7.323399
97.80202,83.04321,-1.159923,0.9798071,7.31694
97.85211,81.51743,-1.493531,0.9798071,7.297563
97.90182,81.13599,-1.718478,0.9798071,7.291103
97.95308,103.6413,-1.688613,0.9798071,7.258807
98.00253,126.2737,-1.694332,0.9796425,7.291103
98.05206,124.748,-1.689248,0.9798071,7.336317
98.10191,106.5657,-1.687977,0.9798071,7.342777
98.15132,101.0983,-1.685435,0.9798071,7.349236
98.20306,94.35944,-1.682894,0.9798071,7.349236
98.25243,97.9196,-1.679716,0.9798071,7.342777
98.30111,105.2942,-1.636506,0.9796425,7.349236
98.35106,105.4214,-1.375974,0.9796425,7.342777
98.40205,91.30788,-0.9826339,0.9798071,7.31694
98.45297,87.74771,-0.5772204,0.9798071,7.349236
98.50267,83.80611,-0.3471895,0.9798071,7.387991
98.55193,81.89888,-0.1730777,0.9798071,7.381532
98.60105,79.73734,-0.1495664,0.9799718,7.368613
98.65178,79.22876,-0.08983458,0.9798071,7.355695
98.70297,111.2702,0.08173546,0.9798071,7.323399
98.75253,127.9267,0.229794,0.9798071,7.355695
98.80181,120.5521,0.3975513,0.9798071,7.381532
98.8516,106.6929,0.5138376,0.9796425,7.400909
98.90128,99.06393,0.6320304,0.9798071,7.407369
98.95313,92.07076,0.7686508,0.9798071,7.407369
99.00231,98.9368,0.8372787,0.9798071,7.39445
99.05208,101.9884,1.017745,0.9798071,7.400909
99.10195,103.5141,1.08256,0.9798071,7.387991
99.15119,89.2735,1.128312,0.9798071,7.368613
99.20277,84.44184,1.174064,0.9798071,7.407369
99.25304,81.89888,1.200753,0.9798071,7.446123
99.3016,79.48306,1.222993,0.9796425,7.446123
99.3512,78.84731,1.221723,0.9798071,7.433205
99.40193,78.21156,1.212826,0.9799718,7.420287
99.45319,84.569,1.211555,0.9798071,7.400909
99.50259,111.5245,1.224265,0.9798071,7.39445
99.55142,119.5349,1.243963,0.9798071,7.433205
99.60156,118.0091,1.252859,0.9798071,7.439664
99.65155,91.43503,1.252859,0.9798071,7.459042
99.70329,86.60338,1.244599,0.9798071,7.465501
99.75304,95.24948,1.236338,0.9798071,7.459042
99.80109,100.844,1.229348,0.9799718,7.452582
99.8521,104.0227,1.222993,0.9798071,7.452582
99.90209,89.2735,1.209014,0.9798071,7.439664
99.95305,85.20473,1.199482,0.9798071,7.420287
100.0022,83.55181,1.181054,0.9798071,7.459042
100.0521,82.40748,1.108614,0.9798071,7.497797
100.102,79.99165,0.9656386,0.9798071,7.497797
100.1512,79.22876,0.7120963,0.9798071,7.491337
100.2031,82.78893,0.6072479,0.9798071,7.478419
100.2531,125.3837,0.5360782,0.9798071,7.465501
100.3011,108.6001,0.497316,0.9799718,7.439664
100.3517,99.06393,0.435678,0.9796425,7.452582
100.4013,89.40065,0.3467157,0.9798071,7.47196
100.4526,86.60338,0.2660143,0.9798071,7.491337
100.5026,95.12233,0.2253458,0.9798071,7.504256
100.5513,101.7341,0.1535406,0.9796425,7.504256
100.6014,91.05358,0.06330755,0.9799718,7.497797
100.652,85.45904,-0.00214323,0.9799718,7.484879
100.7031,81.51743,-0.07013575,0.9798071,7.491337
100.7531,81.13599,-0.1362219,0.9798071,7.478419
100.8013,78.84731,-0.2226425,0.9798071,7.465501
100.8521,78.08442,-0.5702305,0.9796425,7.517174
100.9013,86.73053,-0.7767499,0.9798071,7.530093
100.9528,107.3286,-1.015042,0.9798071,7.517174
101.0023,124.748,-1.114806,0.9798071,7.497797
101.0518,107.4557,-1.131963,0.9796425,7.484879
101.1018,98.6825,-1.147214,0.9798071,7.459042
101.1523,91.68932,-1.317513,0.9796425,7.491337
101.2023,88.7649,-1.431258,0.9798071,7.510715
101.2525,98.1739,-1.471291,0.9798071,7.530093
101.302,101.6069,-1.594567,0.9796425,7.536551
101.3515,89.40065,-1.587577,0.9798071,7.523633
101.402,85.45904,-1.590754,0.9798071,7.517174
101.4531,81.51743,-1.608547,0.9798071,7.517174
101.5031,79.10161,-1.458582,0.9798071,7.510715
101.5518,77.95727,-1.458582,0.9798071,7.491337
101.6017,76.17719,-1.417913,0.9796425,7.504256
101.652,87.11198,-1.158652,0.9798071,7.54947
101.7023,120.6792,-0.7379878,0.9798071,7.543011
101.7521,125.638,-0.3726074,0.9798071,7.530093
101.8018,105.6757,-0.1908703,0.9798071,7.510715
101.8515,98.42819,-0.08983458,0.9798071,7.484879
101.9013,90.67213,0.1147785,0.9796425,7.504256
101.9521,92.32506,0.2977865,0.9798071,7.536551
102.0031,95.12233,0.4172501,0.9799718,7.536551
102.0521,101.3526,0.5316301,0.9798071,7.555929
102.1021,88.7649,0.6841368,0.9798071,7.54947
102.152,84.82329,0.8080485,0.9798071,7.54947
102.2024,82.28033,0.8817599,0.9798071,7.536551
102.2527,79.61021,1.04634,0.9796425,7.530093
102.3013,76.81293,1.06731,0.9798071,7.523633
102.3522,76.55863,1.098446,0.9798071,7.517174
102.4022,91.05358,1.122593,0.9798071,7.510715
102.4527,125.1294,1.154366,0.9798071,7.536551
102.5027,119.9163,1.209649,0.9798071,7.568848
102.5512,106.5657,1.235067,0.9798071,7.568848
102.6011,97.02956,1.254766,0.9798071,7.555929
102.6515,84.82329,1.279548,0.9798071,7.536551
102.7025,88.5106,1.30306,0.9798071,7.517174
102.753,98.55534,1.341822,0.9798071,7.497797
102.802,99.95398,1.386938,0.9798071,7.536551
102.8512,86.09478,1.392657,0.9798071,7.562388
102.9019,80.37309,1.350082,0.9799718,7.562388
102.9526,77.70296,1.327842,0.9798071,7.568848
103.0024,76.17719,1.288444,0.9798071,7.575306
103.0521,74.90571,1.26811,0.9798071,7.562388
103.1021,81.13599,1.247776,0.9798071,7.555929
103.1519,115.4661,1.2249,0.9796425,7.555929
103.2027,120.4249,1.18169,0.9798071,7.543011
103.2523,100.5897,1.143563,0.9798071,7.523633
103.3018,89.5278,1.13149,0.9799718,7.555929
103.3523,81.64457,1.073029,0.9798071,7.581766
103.4016,90.92643,1.005036,0.9798071,7.575306
103.453,99.44539,0.9040004,0.9799718,7.562388
103.5025,100.844,0.7521293,0.9798071,7.543011
103.5512,100.9712,0.708919,0.9796425,7.517174
103.6012,84.44184,0.5341718,0.9798071,7.504256
103.6521,80.75454,0.4636374,0.9796425,7.562388
103.7028,79.3559,0.2901612,0.9798071,7.568848
103.7525,76.05004,0.07982913,0.9796425,7.581766
103.8013,96.01237,-0.1038143,0.9799718,7.588225
103.8518,125.8923,-0.1908703,0.9798071,7.575306
103.9015,124.2394,-0.2448829,0.9798071,7.562388
103.9529,105.4214,-0.3027084,0.9798071,7.555929
104.0029,96.39381,-0.3795972,0.9798071,7.555929
104.0523,90.54498,-0.6102635,0.9798071,7.543011
104.1018,92.83366,-0.701132,0.9798071,7.536551
104.1511,100.5897,-0.7958132,0.9796425,7.575306
104.2025,101.9884,-0.99852,0.9799718,7.588225
104.2531,88.63776,-1.023302,0.9798071,7.575306
104.3021,84.3147,-1.146579,0.9896896,7.555929
104.3523,81.51743,-1.190424,0.9896896,7.543011
104.4021,81.64457,-1.240624,0.9896896,7.510715
104.4531,79.61021,-1.309888,0.9896896,7.555929
104.5023,85.84048,-1.180893,0.9898543,7.575306
104.5511,85.84048,-0.838388,0.9896896,7.575306
104.6018,123.4765,-0.3598984,0.9896896,7.581766
104.6519,106.5657,0.04487965,0.9896896,7.581766
104.7021,100.4626,0.2819003,0.9898543,7.575306
104.753,93.34225,0.371498,0.9896896,7.568848
104.8019,92.45221,0.5017642,0.9896896,7.568848
104.8512,92.7065,0.5748402,0.9898543,7.568848
104.9014,101.4798,0.6142378,0.9900191,7.555929
104.9524,90.16354,0.7044709,0.9896896,7.536551
105.0023,88.12916,0.7578482,0.9896896,7.555929
105.0523,84.3147,0.8093193,0.9898543,7.588225
105.1021,82.02603,1.008849,0.9896896,7.594684
105.1516,78.84731,1.039985,0.9896896,7.581766
105.2027,76.81293,1.047611,0.9898543,7.562388
105.2527,88.5106,1.073664,0.9896896,7.54947
105.3014,120.9335,1.109249,0.9898543,7.517174
105.3523,123.8579,1.140386,0.9898543,7.54947
105.402,105.8028,1.186138,0.9896896,7.594684
105.4533,96.77527,1.219816,0.9898543,7.581766
105.5031,88.7649,1.239515,0.9896896,7.581766
105.5519,88.25631,1.259849,0.9896896,7.581766
105.6013,94.2323,1.280183,0.9896896,7.581766
105.6521,103.2598,1.31132,0.9898543,7.575306
105.7027,91.30788,1.294163,0.9898543,7.568848
105.7525,86.47623,1.284632,0.9896896,7.555929
105.8019,82.02603,1.273194,0.9896896,7.555929
105.8517,79.61021,1.267475,0.9896896,7.54947
105.9023,78.59301,1.24587,0.9898543,7.575306
105.9525,77.83012,1.226171,0.9898543,7.601143
106.0023,84.44184,1.206472,0.9896896,7.601143
106.0514,122.3321,1.160084,0.9898543,7.581766
106.1023,123.9851,1.113697,0.9898543,7.562388
106.1517,106.9472,1.088915,0.9896896,7.536551
106.2026,94.86804,1.081289,0.9898543,7.543011
106.2526,83.93326,1.066674,0.9896896,7.575306
106.3023,88.89205,1.016474,0.9896896,7.581766
106.3517,99.82683,0.9529296,0.9896896,7.594684
106.4011,101.8612,0.8639674,0.9898543,7.588225
106.4529,87.11198,0.7343369,0.9898543,7.575306
106.5022,83.55181,0.7006583,0.9898543,7.562388
106.5523,82.02603,0.634572,0.9898543,7.555929
106.6017,78.08442,0.5716631,0.9896896,7.54947
106.6521,76.43149,0.4610957,0.9798071,7.555929
106.7026,75.16,0.2730042,0.9798071,7.588225
106.7523,86.60338,0.1529052,0.9798071,7.607603
106.8021,125.7652,0.06775562,0.9798071,7.594684
106.852,123.095,-0.003414156,0.9798071,7.568848
106.9013,102.1155,-0.005320488,0.9798071,7.555929
106.9534,92.83366,-0.03200912,0.9798071,7.517174
107.0029,89.14634,-0.1584625,0.9798071,7.536551
107.0514,90.79928,-0.2525083,0.9796425,7.568848
107.1016,99.19109,-0.3554502,0.9798071,7.588225
107.1523,100.4626,-0.43361,0.9798071,7.588225
107.2023,87.62056,-0.4920708,0.9798071,7.594684
107.2526,81.64457,-0.6102635,0.9796425,7.588225
107.3021,78.97446,-0.7227372,0.9798071,7.588225
107.3517,77.06723,-0.7646765,0.9798071,7.581766
107.4023,76.17719,-1.212665,0.9798071,7.588225
107.4523,75.28716,-1.652392,0.9798071,7.562388
107.503,86.09478,-1.698144,0.9798071,7.562388
107.5513,114.0675,-1.687342,0.9796425,7.575306
107.6013,114.8304,-1.686071,0.9798071,7.588225
107.6513,104.5313,-1.686071,0.9798071,7.568848
107.703,97.41101,-1.685435,0.9796425,7.562388
107.7526,89.65494,-1.682894,0.9798071,7.543011
107.8013,91.81647,-1.682258,0.9799718,7.517174
107.8513,99.69969,-1.682894,0.9796425,7.555929
107.9022,101.9884,-1.684165,0.9796425,7.581766
107.9522,88.00201,-1.683529,0.9798071,7.588225
108.0033,84.44184,-1.681623,0.9796425,7.594684
108.0515,80.24594,-1.619349,0.9796425,7.588225
108.102,78.72016,-1.203133,0.9798071,7.581766
108.1517,77.32152,-0.7443423,0.9796425,7.562388
108.2023,77.19438,-0.7189245,0.9798071,7.543011
108.2523,77.19438,-0.6096281,0.9798071,7.543011
108.3023,99.95398,-0.4380581,0.9798071,7.543011
108.352,125.5108,-0.329397,0.9798071,7.568848
108.402,111.1431,-0.1546498,0.9798071,7.594684
108.4533,100.4626,-0.0485307,0.9798071,7.581766
108.5028,91.56216,0.1287583,0.9796425,7.555929
108.552,87.74771,0.2647434,0.9798071,7.543011
108.6017,95.12233,0.3867487,0.9798071,7.523633
108.6513,100.5897,0.5068477,0.9798071,7.543011
108.7025,99.69969,0.5780174,0.9796425,7.575306
108.7531,86.85767,0.7305242,0.9796425,7.581766
108.8018,82.15317,0.8086839,0.9798071,7.581766
108.852,79.99165,0.9522942,0.9798071,7.588225
108.902,78.21156,1.044434,0.9796425,7.581766
108.953,76.05004,1.083196,0.9798071,7.568848
109.003,75.41429,1.093363,0.9798071,7.562388
109.0519,74.90571,1.093363,0.9798071,7.54947
109.1017,77.57583,1.093363,0.9798071,7.536551
109.152,113.686,1.092092,0.9798071,7.568848
109.2032,121.5692,1.114332,0.9798071,7.588225
109.253,99.06393,1.148646,0.9796425,7.581766
109.3018,88.89205,1.178512,0.9798071,7.568848
109.3514,83.42466,1.196305,0.9796425,7.54947
109.4013,91.81647,1.198211,0.9796425,7.536551
109.4525,98.6825,1.192492,0.9798071,7.54947
109.5025,100.4626,1.184867,0.9796425,7.562388
109.5517,100.0811,1.166439,0.9798071,7.581766
109.6013,82.28033,1.16072,0.9798071,7.575306
109.6514,79.22876,1.148646,0.9796425,7.568848
109.7025,75.54144,1.139115,0.9798071,7.555929
109.7524,74.90571,1.061591,0.9798071,7.555929
109.802,74.90571,0.8201218,0.9798071,7.54947
109.8516,78.08442,0.6434683,0.9798071,7.536551
109.9023,94.74089,0.5487871,0.9796425,7.562388
109.9533,118.772,0.5437035,0.9798071,7.588225
110.0032,99.69969,0.5271819,0.9798071,7.575306
110.0517,90.92643,0.5214629,0.9798071,7.555929
110.1016,83.17036,0.5093895,0.9798071,7.536551
110.1517,85.45904,0.4115311,0.9799718,7.517174
110.2029,92.57936,0.3200271,0.9796425,7.54947
110.2529,99.69969,0.2539409,0.9798071,7.562388
110.3017,88.63776,0.1535406,0.9798071,7.575306
110.352,83.42466,0.1236747,0.9798071,7.568848
110.4014,79.73734,0.06584929,0.9798071,7.562388
110.4524,77.70296,-0.03772812,0.9798071,7.555929
110.5032,75.16,-0.04344711,0.9798071,7.54947
110.5514,74.01566,-0.1724423,0.9796425,7.543011
110.6024,73.63422,-0.4031087,0.9796425,7.543011
110.6523,93.59654,-0.6706307,0.9796425,7.536551
110.7034,119.7892,-0.7748436,0.9796425,7.568848
110.753,123.3493,-0.8733374,0.9796425,7.575306
110.8013,100.9712,-0.9248084,0.9798071,7.562388
110.8513,92.83366,-0.9273502,0.9798071,7.543011
110.9013,86.22193,-0.9483199,0.9798071,7.536551
110.9527,88.63776,-0.9686542,0.9798071,7.510715
111.0027,96.90242,-1.031563,0.9796425,7.517174
111.0515,99.31824,-1.159923,0.9796425,7.555929
111.1012,85.84048,-1.363265,0.9798071,7.555929
111.1521,81.13599,-1.344837,0.9798071,7.562388
111.2022,77.70296,-1.379787,0.9796425,7.568848
111.2523,75.16,-1.381058,0.9798071,7.54947
111.3024,74.14281,-1.404569,0.9796425,7.536551
111.3523,73.63422,-1.66383,0.9798071,7.523633
111.4016,82.28033,-1.686071,0.9798071,7.530093
111.4525,102.8784,-1.679716,0.9798071,7.530093
111.5023,122.7136,-1.643496,0.9798071,7.54947
111.5517,122.7136,-1.290824,0.9796425,7.562388
111.6016,96.01237,-0.8472842,0.9798071,7.555929
111.6515,88.12916,-0.4844455,0.9796425,7.536551
111.7029,86.60338,-0.2722071,0.9798071,7.523633
111.7526,91.43503,-0.1146169,0.9796425,7.504256
111.8013,100.5897,0.02391,0.9798071,7.504256
111.8512,92.07076,0.1757812,0.9798071,7.536551
111.9013,86.09478,0.2723687,0.9798071,7.555929
111.9515,80.75454,0.36705,0.9796425,7.54947
112.0015,77.19438,0.4827009,0.9798071,7.555929
112.052,75.66859,0.5818301,0.9798071,7.54947
112.1027,74.39711,0.6072479,0.9796425,7.543011
112.1515,74.01566,0.6161441,0.9796425,7.543011
112.2014,75.92289,0.6822304,0.9799718,7.543011
112.2513,100.9712,0.7711927,0.9798071,7.536551
112.302,123.4765,0.8843017,0.9798071,7.517174
112.3523,111.0159,1.039985,0.9798071,7.510715
112.4018,93.2151,1.087644,0.9798071,7.530093
112.4519,85.20473,1.126406,0.9798071,7.543011
112.5018,83.67896,1.155636,0.9798071,7.543011
112.5514,89.40065,1.197576,0.9798071,7.536551
112.6033,98.9368,1.224265,0.9796425,7.517174
112.6521,88.63776,1.25413,0.9798071,7.497797
112.7019,82.40748,1.280183,0.9798071,7.47196
112.7518,79.99165,1.298611,0.9798071,7.491337
112.8019,76.81293,1.304966,0.9798071,7.530093
112.8531,75.16,1.289715,0.9798071,7.543011
112.9013,74.01566,1.266204,0.9796425,7.543011
112.9525,76.94007,1.250953,0.9798071,7.543011
113.0023,111.7788,1.244599,0.9798071,7.543011
113.0523,123.6036,1.242057,0.9796425,7.530093
113.1022,94.35944,1.229983,0.9798071,7.523633
113.1518,84.3147,1.229983,0.9798071,7.510715
113.2018,79.86449,1.229348,0.9798071,7.497797
113.2516,93.08795,1.225535,0.9799718,7.484879
113.3013,94.86804,1.21791,0.9796425,7.491337
113.3534,99.19109,1.198847,0.9796425,7.530093
113.4013,85.07759,1.153095,0.9798071,7.543011
113.4523,79.73734,1.097811,0.9798071,7.543011
113.5022,76.68578,1.070487,0.9798071,7.530093
113.5519,76.68578,0.9897854,0.9798071,7.510715
113.6034,73.12562,0.7451394,0.9798071,7.497797
113.6521,82.91606,0.6256759,0.9799718,7.465501
113.7015,111.6517,0.5360782,0.9798071,7.465501
113.7515,121.9507,0.4903262,0.9798071,7.504256
113.8021,102.497,0.4445741,0.9798071,7.530093
113.8523,91.30788,0.4223336,0.9798071,7.530093
113.9021,83.17036,0.3200271,0.9798071,7.536551
113.952,85.84048,0.2666497,0.9796425,7.523633
114.0025,92.45221,0.2081888,0.9796425,7.517174
114.0513,99.31824,0.1255811,0.9798071,7.504256
114.1023,87.11198,0.02136827,0.9796425,7.497797
114.1523,82.78893,-0.06695861,0.9798071,7.484879
114.2017,80.37309,-0.1228776,0.9796425,7.478419
114.2522,78.46587,-0.1699005,0.9799718,7.484879
114.302,75.54144,-0.4158176,0.9796425,7.523633
114.353,77.19438,-0.7112991,0.9798071,7.530093
114.4025,94.48659,-0.9737377,0.9798071,7.523633
114.4524,126.6552,-1.086211,0.9798071,7.510715
114.5016,113.1774,-1.096378,0.9798071,7.491337
114.5524,105.1671,-1.094472,0.9796425,7.459042
114.6034,91.30788,-1.208217,0.9798071,7.452582
114.6517,88.5106,-1.304169,0.9796425,7.497797
114.7025,93.978,-1.522762,0.9798071,7.510715
114.7525,100.9712,-1.594567,0.9798071,7.517174
114.8024,93.72369,-1.585035,0.9799718,7.517174
114.853,89.0192,-1.594567,0.9799718,7.510715
114.9013,83.55181,-1.628881,0.9798071,7.497797
114.952,81.89888,-1.605369,0.9798071,7.484879
115.0025,79.61021,-1.651757,0.9798071,7.47196
115.0515,77.70296,-1.673997,0.9796425,7.459042
115.1029,76.43149,-1.667643,0.9796425,7.465501
115.1522,96.26666,-1.669549,0.9798071,7.484879
115.2018,126.2737,-1.626339,0.9796425,7.510715
115.2516,115.9747,-1.259052,0.9798071,7.517174
115.3022,100.7169,-0.844107,0.9798071,7.504256
115.3527,91.94361,-0.5454481,0.9796425,7.491337
115.402,89.5278,-0.3332098,0.9796425,7.47196
115.4515,98.42819,-0.1654524,0.9796425,7.452582
115.5015,102.6241,-0.06314594,0.9798071,7.439664
115.5515,101.2255,0.1077887,0.9796425,7.484879
115.6026,87.36626,0.2386901,0.9798071,7.491337
115.6518,84.0604,0.3429031,0.9898543,7.497797
115.7018,83.17036,0.464273,0.9896896,7.497797
115.7518,82.02603,0.5125667,0.9898543,7.491337
115.8014,80.37309,0.5335364,0.9898543,7.478419
115.8528,82.66177,0.5754758,0.9896896,7.47196
115.9015,99.31824,0.7114608,0.9896896,7.452582
115.9518,124.2394,0.806142,0.9896896,7.439664
116.0024,107.4557,1.002494,0.9898543,7.446123
116.0522,97.53816,1.055872,0.9898543,7.478419
116.1035,88.5106,1.104801,0.9898543,7.510715
116.152,89.40065,1.148011,0.9898543,7.497797
116.2022,98.6825,1.194399,0.9896896,7.491337
116.2515,103.2598,1.237609,0.9896896,7.465501
116.3015,90.92643,1.266204,0.9898543,7.446123
116.3533,86.60338,1.285267,0.9896896,7.420287
116.402,82.02603,1.305601,0.9896896,7.439664
116.4518,79.61021,1.336103,0.9896896,7.484879
116.5017,78.46587,1.345634,0.9896896,7.491337
116.5525,78.08442,1.346905,0.9896896,7.491337
116.6024,80.50024,1.346905,0.9898543,7.484879
116.6525,123.6036,1.336738,0.9898543,7.47196
116.702,115.5933,1.313227,0.9896896,7.459042
116.7517,100.5897,1.279548,0.9896896,7.459042
116.8015,88.63776,1.278913,0.9898543,7.446123
116.8532,87.36626,1.276371,0.9898543,7.439664
116.9015,99.69969,1.267475,0.9896896,7.478419
116.9524,103.2598,1.264933,0.9898543,7.484879
117.002,103.6413,1.259849,0.9896896,7.465501
117.0517,88.89205,1.249047,0.9898543,7.446123
117.1033,84.18755,1.210285,0.9898543,7.426746
117.1517,82.40748,1.164533,0.9896896,7.413827
117.2017,79.99165,1.102259,0.9896896,7.465501
117.2522,78.46587,0.965003,0.9896896,7.47196
117.3022,106.82,0.7648381,0.9896896,7.478419
117.353,125.638,0.7032001,0.9898543,7.478419
117.4017,122.205,0.6625317,0.9896896,7.459042
117.4524,104.4042,0.5913619,0.9896896,7.446123
117.502,95.75809,0.5735694,0.9898543,7.439664
117.5517,92.45221,0.5125667,0.9896896,7.439664
117.6029,96.13953,0.4553767,0.9898543,7.420287
117.6514,104.1499,0.3899259,0.9898543,7.459042
117.702,105.2942,0.3066828,0.9896896,7.478419
117.7514,90.79928,0.2672852,0.9896896,7.47196
117.8021,85.84048,0.1764166,0.9896896,7.459042
117.8528,82.40748,0.1319356,0.9898543,7.446123
117.9016,80.50024,0.02581633,0.9896896,7.433205
117.9523,79.48306,-0.1921411,0.9898543,7.420287
118.0021,86.60338,-0.4151821,0.9896896,7.433205
118.0516,119.5349,-0.6814333,0.9898543,7.446123
118.1024,126.2737,-0.8142411,0.9896896,7.465501
118.152,116.3562,-0.8568159,0.9896896,7.452582
118.2014,105.4214,-0.9432364,0.9898543,7.439664
118.2523,99.31824,-1.027115,0.9898543,7.433205
118.3021,93.46941,-1.08494,0.9896896,7.413827
118.3524,100.0811,-1.12688,0.9896896,7.413827
118.4018,104.0227,-1.36263,0.9896896,7.433205
118.4516,94.74089,-1.573597,0.9896896,7.465501
118.5021,89.65494,-1.682894,0.9898543,7.465501
118.5514,87.36626,-1.677175,0.9898543,7.459042
118.6028,83.17036,-1.680987,0.9896896,7.439664
118.6523,80.62739,-1.651121,0.9896896,7.420287
118.7018,79.61021,-1.682894,0.9896896,7.387991
118.7516,78.84731,-1.684165,0.9896896,7.407369
118.8016,84.3147,-1.689248,0.9896896,7.446123
118.8529,117.6276,-1.693061,0.9896896,7.452582
118.9023,123.095,-1.684165,0.9898543,7.459042
118.9513,107.0743,-1.633964,0.9896896,7.452582
119.0013,103.2598,-1.246979,0.9898543,7.433205
119.0524,95.24948,-0.7201954,0.9898543,7.426746
119.1024,94.86804,-0.3961187,0.9896896,7.413827
119.1517,100.9712,-0.2029436,0.9898543,7.407369
119.2017,104.7856,-0.04471804,0.9896896,7.400909
119.252,91.68932,0.1332064,0.9896896,7.439664
119.3018,88.12916,0.2977865,0.9898543,7.465501
119.3527,83.42466,0.4305944,0.9898543,7.459042
119.4022,81.13599,0.5417972,0.9896896,7.439664
119.4515,79.99165,0.6720632,0.9898543,7.420287
119.502,79.61021,0.7680154,0.9898543,7.39445
119.5518,79.22876,0.7839015,0.9896896,7.407369
119.6031,78.46587,0.8163092,0.9896896,7.426746
119.652,96.64812,0.9726284,0.9896896,7.439664
119.702,125.5108,1.077477,0.9896896,7.439664
119.752,108.6001,1.142292,0.9898543,7.433205
119.802,99.44539,1.18868,0.9898543,7.426746
119.8532,89.2735,1.207743,0.9898543,7.413827
119.9025,90.54498,1.238244,0.9896896,7.407369
119.9521,102.8784,1.264297,0.9898543,7.39445
120.0018,103.7684,1.295434,0.9898543,7.39445
120.0518,98.9368,1.348176,0.9898543,7.407369
120.1028,86.98483,1.395199,0.9898543,7.446123
120.1522,84.18755,1.413627,0.9896896,7.446123
120.2022,82.40748,1.423159,0.9896896,7.433205
120.252,79.61021,1.419346,0.9898543,7.407369
120.302,78.21156,1.405366,0.9896896,7.400909
120.3524,79.22876,1.381855,0.9896896,7.375072
120.4021,84.44184,1.341186,0.9898543,7.400909
120.4517,122.8407,1.30433,0.9898543,7.413827
120.5017,102.8784,1.275735,0.9896896,7.426746
120.5514,100.9712,1.267475,0.9896896,7.426746
120.6025,89.40065,1.266839,0.9896896,7.426746
120.6525,86.47623,1.230619,0.9898543,7.407369
120.7015,99.31824,1.168981,0.9898543,7.407369
120.7524,102.8784,1.139115,0.9898543,7.407369
120.8023,90.29069,1.127677,0.9896896,7.387991
120.8523,85.07759,1.116874,0.9898543,7.400909
120.9024,82.66177,1.080019,0.9898543,7.433205
120.9514,79.61021,1.068581,0.9896896,7.433205
121.0019,78.21156,1.023464,0.9898543,7.413827
121.0521,76.81293,0.822028,0.9898543,7.39445
121.1035,82.28033,0.6650733,0.9898543,7.375072
121.1521,108.4729,0.5780174,0.9896896,7.362154
121.2014,125.1294,0.561496,0.9896896,7.400909
121.2517,112.4145,0.5742048,0.9898543,7.407369
121.3024,101.0983,0.5900908,0.9896896,7.426746
121.3531,92.57936,0.5811947,0.9896896,7.413827
121.4014,90.03638,0.5379845,0.9896896,7.407369
121.4519,98.6825,0.4738046,0.9898543,7.39445
121.5015,102.8784,0.4172501,0.9896896,7.381532
121.5526,91.18073,0.3289233,0.9898543,7.381532
121.6025,86.47623,0.2844422,0.9896896,7.381532
121.6517,82.78893,0.2088244,0.9898543,7.400909
121.7022,79.61021,0.1509989,0.9896896,7.420287
121.7523,77.70296,0.06712022,0.9896896,7.420287
121.8023,77.32152,-0.1552854,0.9896896,7.407369
121.8531,78.08442,-0.3103337,0.9896896,7.387991
121.9014,110.3802,-0.4755493,0.9896896,7.355695
121.9525,125.3837,-0.6522028,0.9896896,7.355695
122.0026,119.1534,-0.7093928,0.9896896,7.400909
122.0522,104.6585,-0.9114642,0.9898543,7.400909
122.1032,97.15671,-0.964206,0.9896896,7.413827
122.1525,91.30788,-0.9781858,0.9896896,7.407369
122.2023,99.06393,-0.9972492,0.9898543,7.39445
122.2516,102.8784,-1.00551,0.9898543,7.381532
122.3023,92.19792,-1.055074,0.9896896,7.375072
122.3531,88.12916,-1.174538,0.9896896,7.368613
122.4015,85.58618,-1.2133,0.9896896,7.375072
122.452,82.02603,-1.293366,0.9896896,7.420287
122.5021,79.61021,-1.374703,0.9896896,7.420287
122.552,78.08442,-1.414736,0.9898543,7.400909
122.6026,77.57583,-1.681623,0.9898543,7.375072
122.6523,77.32152,-1.672091,0.9898543,7.342777
122.7017,90.03638,-1.674633,0.9898543,7.342777
122.752,126.2737,-1.672091,0.9896896,7.39445
122.8018,113.686,-1.668914,0.9898543,7.39445
122.8528,105.1671,-1.673362,0.9898543,7.400909
122.9014,97.41101,-1.646673,0.9898543,7.400909
122.9519,91.30788,-1.341025,0.9896896,7.400909
123.0022,96.26666,-0.9483199,0.9898543,7.39445
123.0517,101.9884,-0.6128052,0.9896896,7.381532
123.1026,93.978,-0.4031087,0.9896896,7.375072
123.1522,88.12916,-0.2131107,0.9896896,7.368613
123.2023,85.20473,-0.06568768,0.9896896,7.362154
123.2517,81.51743,0.1128722,0.9898543,7.400909
123.3015,81.00883,0.2437737,0.9896896,7.407369
123.3525,79.10161,0.3823006,0.9896896,7.400909
123.4015,76.81293,0.4369488,0.9896896,7.375072
123.4524,74.77856,0.4769819,0.9898543,7.349236
123.5024,78.72016,0.5004933,0.9898543,7.329859
123.5519,78.84731,0.5697567,0.9898543,7.375072
123.6034,123.3493,0.7051063,0.9896896,7.387991
123.6517,109.1087,0.8163092,0.9896896,7.39445
123.702,96.77527,0.965003,0.9896896,7.39445
123.7524,89.0192,1.041257,0.9896896,7.39445
123.8025,84.82329,1.079383,0.9896896,7.381532
123.8532,94.74089,1.127677,0.9898543,7.39445
123.902,100.5897,1.151824,0.9898543,7.362154
123.9519,88.5106,1.193763,0.9896896,7.342777
124.0014,84.18755,1.224265,0.9898543,7.375072
124.0522,82.02603,1.249682,0.9896896,7.400909
124.1028,78.33871,1.274464,0.9896896,7.387991
124.1522,76.05004,1.283361,0.9898543,7.368613
124.2022,75.66859,1.301789,0.9898543,7.355695
124.2522,74.77856,1.310049,0.9896896,7.329859
124.3017,98.9368,1.293528,0.9896896,7.355695
124.3525,122.205,1.286538,0.9896896,7.387991
124.4025,117.2462,1.281454,0.9898543,7.387991
124.4522,98.30104,1.276371,0.9898543,7.387991
124.5019,85.84048,1.257307,0.9898543,7.381532
124.5514,81.51743,1.245234,0.9896896,7.375072
124.6034,95.24948,1.236338,0.9896896,7.368613
124.6517,99.44539,1.214097,0.9896896,7.362154
124.7015,88.7649,1.161355,0.9898543,7.342777
124.7519,84.69615,1.1245,0.9896896,7.336317
124.8017,80.75454,1.040621,0.9896896,7.368613
124.8527,78.08442,0.9942335,0.9896896,7.39445
124.9022,75.16,0.7985167,0.9898543,7.400909
124.9518,74.01566,0.6224986,0.9896896,7.39445
125.0017,80.75454,0.5233693,0.9896896,7.375072
125.0517,108.9815,0.4839717,0.9896896,7.349236
125.1028,124.2394,0.4674501,0.9896896,7.329859
125.1515,106.5657,0.4344071,0.9896896,7.349236
125.2017,92.83366,0.384207,0.9898543,7.362154
125.2525,84.569,0.2939739,0.9898543,7.381532
125.3022,83.93326,0.2552117,0.9896896,7.375072
125.3535,92.83366,0.1846775,0.9898543,7.362154
125.4019,99.82683,0.1243102,0.9896896,7.349236
125.4527,85.84048,0.1014342,0.9898543,7.349236
125.5026,82.78893,0.01056568,0.9896896,7.342777
125.5518,78.84731,-0.09491805,0.9896896,7.355695
125.6036,76.43149,-0.1730777,0.9896896,7.387991
125.652,74.39711,-0.370701,0.9798071,7.387991
125.7018,74.01566,-0.6693599,0.9798071,7.387991
125.7518,93.2151,-0.8638058,0.9798071,7.362154
125.8024,125.5108,-0.9775503,0.9798071,7.336317
125.8533,120.9335,-0.9673833,0.9798071,7.310481
