t_sec,O11_muM,O12_muM,O21_muM,O23_muM,O32_muM,O33_muM,O34_muM,O42_muM,O44_muM,O45_muM,O53_muM,O54_muM,O56_muM,O64_muM,O65_muM,O66_muM,O75_muM,O77_muM,O86_muM,O87_muM,D11_muM,D12_muM,D21_muM,D23_muM,D32_muM,D33_muM,D34_muM,D42_muM,D44_muM,D45_muM,D53_muM,D54_muM,D56_muM,D64_muM,D65_muM,D66_muM,D75_muM,D77_muM,D86_muM,D87_muM
0.03363651,-2.206106,-2.051782,-1.854342,-2.035048,-2.478161,-1.286943,-2.352399,-0.8348352,-1.169798,-1.718067,-3.207419,-1.856593,-3.183883,-2.496911,-2.207144,-2.850392,-1.582127,-1.057106,-4.20708,-2.060976,0.5686246,0.1507711,1.258515,0.9089923,0.341627,1.057362,0.4799636,0.5094556,0.6720671,0.4336661,0.8822179,0.947193,0.475265,0.4340861,0.66987,1.060765,0.5159733,0.8070522,0.7883751,1.535676
0.1616357,-2.307144,-2.106723,-1.952478,-2.115783,-2.606407,-1.399419,-2.471368,-0.8556619,-1.309925,-1.799612,-3.321513,-1.97305,-3.361835,-2.623983,-2.298536,-3.1114,-1.637654,-1.11683,-4.372269,-2.158068,0.5687025,0.1470664,1.261345,0.9114165,0.3523038,1.055573,0.4713393,0.5085676,0.7083264,0.4558419,0.8822575,0.9500718,0.4743621,0.430203,0.6741147,1.073102,0.5177059,0.810737,0.7904646,1.543382
0.2896348,-2.409034,-2.170604,-2.02319,-2.155794,-2.554865,-1.37533,-2.42131,-0.8664283,-1.236238,-1.808143,-3.198398,-1.863377,-3.095173,-2.379136,-2.09542,-2.604467,-1.553339,-1.009692,-3.854579,-1.953663,0.5898188,0.1477829,1.24632,0.9077994,0.3480569,1.061521,0.4812117,0.5179956,0.6915101,0.4620532,0.8911044,0.9477458,0.484082,0.4481514,0.6499631,1.069851,0.5171713,0.8014012,0.7884078,1.531009
0.417634,-2.129674,-2.063636,-1.790765,-1.950067,-2.290682,-1.105701,-2.040351,-0.7380954,-0.9905393,-1.699669,-2.937133,-1.618007,-2.759978,-2.094278,-1.899065,-2.08877,-1.455716,-0.9685928,-3.642008,-1.812827,0.5458065,0.1420217,1.253302,0.9095429,0.3536192,1.060988,0.49406,0.5151203,0.6688643,0.4684154,0.890479,0.9491113,0.4848329,0.4681071,0.6697364,1.069814,0.5141621,0.8205492,0.7855861,1.529278
0.5456331,-2.045749,-1.988044,-1.667988,-1.861692,-2.217495,-1.030041,-1.945516,-0.6790271,-1.006852,-1.662701,-2.892619,-1.597265,-2.724466,-2.097032,-1.890888,-2.126568,-1.448453,-0.9681982,-3.670887,-1.826081,0.5734603,0.1368293,1.25324,0.9093226,0.3425007,1.055989,0.4805438,0.4982032,0.6873343,0.4645555,0.8851277,0.943004,0.4832578,0.4596069,0.6556735,1.059062,0.5182371,0.8182682,0.7865394,1.522003
0.6736323,-2.026796,-1.989258,-1.686961,-1.874072,-2.250927,-1.056726,-1.996574,-0.6883694,-0.9752479,-1.640288,-2.925054,-1.610757,-2.781233,-2.160411,-1.933204,-2.237368,-1.444838,-0.9343709,-3.768059,-1.859629,0.5602375,0.1387057,1.249563,0.9048367,0.3428698,1.053596,0.4719929,0.5033394,0.6605704,0.4542077,0.8834317,0.9422024,0.4768291,0.4534329,0.6600035,1.055671,0.5130383,0.8033845,0.7835091,1.521559
0.8016314,-2.095907,-2.007078,-1.736867,-1.925814,-2.322893,-1.124289,-2.093534,-0.7047322,-1.073911,-1.654866,-3.020519,-1.6852,-2.916693,-2.281003,-2.00618,-2.4638,-1.488665,-1.038181,-3.920285,-1.946755,0.5696582,0.1386659,1.252845,0.9086646,0.3410583,1.05057,0.4684814,0.5059547,0.6820105,0.4574539,0.8863437,0.9409378,0.4759946,0.443714,0.6578658,1.055414,0.5164934,0.8332031,0.7887525,1.535475
0.9296305,-2.178629,-2.05352,-1.817882,-1.996589,-2.413486,-1.227718,-2.224279,-0.7506753,-1.127058,-1.682646,-3.115152,-1.776174,-3.066807,-2.398105,-2.090182,-2.690135,-1.525615,-1.057782,-4.074336,-2.021398,0.5734326,0.1352078,1.252326,0.9086716,0.340245,1.053037,0.468681,0.5186675,0.6782358,0.4540303,0.8820113,0.9382567,0.4728478,0.4307395,0.6488852,1.049752,0.512184,0.8147936,0.791113,1.535287
1.05763,-2.261054,-2.110615,-1.917834,-2.078847,-2.52335,-1.323794,-2.336805,-0.7872046,-1.250513,-1.752885,-3.230421,-1.870606,-3.223395,-2.524398,-2.20857,-2.905804,-1.576566,-1.113551,-4.233669,-2.102889,0.5777226,0.1362049,1.259238,0.9131668,0.3415928,1.053068,0.4653866,0.5151582,0.7067781,0.4712164,0.8825056,0.9317806,0.4704854,0.4303312,0.6654801,1.047833,0.5143495,0.8154103,0.7941707,1.538007
1.185629,-2.322594,-2.168439,-1.983719,-2.155074,-2.635756,-1.44185,-2.465536,-0.8392151,-1.327272,-1.796129,-3.364135,-1.986759,-3.412888,-2.662647,-2.273158,-3.168274,-1.631653,-1.181129,-4.385674,-2.2153,0.5524375,0.1327642,1.252361,0.9131635,0.3441094,1.057594,0.4660004,0.5177768,0.7019113,0.4606189,0.8816559,0.9300954,0.4699865,0.4243915,0.6405396,1.058172,0.5153737,0.8148923,0.8021148,1.543579
1.313628,-2.37739,-2.214936,-2.035132,-2.157768,-2.514719,-1.348394,-2.336672,-0.8264287,-1.202499,-1.769676,-3.188675,-1.837767,-3.067695,-2.351394,-2.054728,-2.570658,-1.530648,-1.04681,-3.83405,-1.969144,0.538473,0.1361083,1.244217,0.9164901,0.3373424,1.059329,0.4803132,0.522442,0.7002105,0.4555675,0.8889822,0.9362734,0.4791023,0.4446931,0.6292575,1.066594,0.5155287,0.801519,0.8056339,1.530732
1.441627,-2.152547,-2.081992,-1.783602,-1.956272,-2.269355,-1.103168,-1.977573,-0.7105916,-1.022058,-1.671932,-2.937859,-1.613955,-2.755416,-2.080244,-1.849399,-2.084164,-1.435181,-0.9519421,-3.646642,-1.84481,0.5593377,0.132122,1.245885,0.9172165,0.3452789,1.061398,0.4800939,0.5206764,0.6872807,0.4524709,0.8859662,0.9441488,0.4810988,0.4612256,0.6451059,1.063641,0.5098277,0.8070291,0.7963554,1.531118
1.569626,-2.061699,-2.00785,-1.676199,-1.882542,-2.211763,-1.04465,-1.934959,-0.6744842,-0.9962156,-1.61198,-2.908708,-1.57838,-2.754636,-2.104668,-1.898704,-2.107521,-1.431534,-0.9480372,-3.677379,-1.827545,0.5584078,0.1344843,1.250593,0.9179541,0.3374064,1.059995,0.477958,0.5109496,0.6823854,0.4479836,0.8807481,0.9363933,0.4740841,0.4577747,0.6725544,1.061515,0.5115288,0.7979879,0.8067574,1.529327
1.697625,-2.055818,-1.993749,-1.694639,-1.901839,-2.244075,-1.064383,-1.977545,-0.6909648,-0.9884896,-1.630847,-2.946472,-1.603405,-2.837699,-2.173841,-1.92018,-2.245498,-1.443598,-1.014552,-3.806926,-1.881011,0.5627682,0.1326555,1.249633,0.9158487,0.3386934,1.059525,0.4695288,0.516091,0.6611701,0.4645554,0.8806029,0.9345672,0.4680485,0.4477004,0.6408123,1.062295,0.5081989,0.8180919,0.800424,1.53896
1.825625,-2.116413,-2.008864,-1.753887,-1.961743,-2.338264,-1.143728,-2.087488,-0.7295702,-1.079219,-1.647959,-3.044391,-1.670687,-3.005757,-2.301184,-1.991633,-2.456685,-1.48513,-1.03768,-3.992857,-1.936754,0.5628856,0.1346029,1.252085,0.9169282,0.3450117,1.061721,0.4621731,0.5229821,0.6723134,0.4605108,0.8822054,0.9300381,0.4599645,0.4336885,0.6356404,1.065984,0.5104442,0.8106112,0.796365,1.537662
1.953624,-2.176705,-2.055246,-1.854518,-2.035136,-2.435227,-1.233455,-2.20134,-0.7365458,-1.13944,-1.686267,-3.155622,-1.751276,-3.150064,-2.425048,-2.086044,-2.718731,-1.531525,-1.082036,-4.153544,-2.023286,0.5589309,0.1336401,1.258916,0.9192854,0.3422375,1.062684,0.4547537,0.5100399,0.6863921,0.4571394,0.8795134,0.9219245,0.4645005,0.4285178,0.6402203,1.065507,0.5114884,0.8187612,0.7955783,1.542704
2.081623,-2.253481,-2.121616,-1.923146,-2.11545,-2.537722,-1.343123,-2.339587,-0.7940572,-1.192849,-1.732461,-3.273742,-1.872196,-3.311048,-2.54301,-2.199466,-2.94476,-1.585375,-1.147063,-4.335442,-2.124805,0.5565161,0.1353164,1.253423,0.918468,0.3450198,1.063941,0.4598819,0.519152,0.654639,0.4567704,0.8807124,0.9328596,0.4626299,0.4203134,0.6552235,1.06133,0.5130982,0.8168495,0.8058007,1.557751
2.209622,-2.363629,-2.175557,-2.012598,-2.204486,-2.635881,-1.4528,-2.464468,-0.8527673,-1.262589,-1.78092,-3.401603,-1.983202,-3.507971,-2.671516,-2.290448,-3.179808,-1.643367,-1.189181,-4.475403,-2.203435,0.5618504,0.1370128,1.256333,0.9258478,0.3424601,1.063768,0.4512168,0.5245268,0.6431599,0.4437603,0.88283,0.930469,0.4607025,0.4169794,0.6272849,1.06812,0.5116664,0.813322,0.8051407,1.551392
2.337621,-2.422665,-2.206877,-2.028502,-2.190977,-2.495883,-1.328059,-2.295628,-0.7979673,-1.158852,-1.751395,-3.204466,-1.790757,-3.103738,-2.325506,-2.048907,-2.502519,-1.53224,-1.070842,-3.885007,-1.926655,0.5544021,0.1389623,1.243649,0.9285066,0.3465825,1.071937,0.4713448,0.5053138,0.6612771,0.4475372,0.8861674,0.9198005,0.4716841,0.4416458,0.6497076,1.076204,0.5125098,0.8149341,0.8041468,1.538187
2.46562,-2.202626,-2.065392,-1.76826,-1.963208,-2.232292,-1.062406,-1.896675,-0.6829084,-0.9568916,-1.644581,-2.912728,-1.541219,-2.752628,-2.02198,-1.818602,-1.971158,-1.435212,-0.9803602,-3.650649,-1.776136,0.5935449,0.1367617,1.248207,0.9243003,0.3489073,1.067427,0.4643683,0.5106272,0.6590536,0.4567756,0.8880013,0.9265671,0.4773655,0.460606,0.6526479,1.066085,0.5138862,0.8262494,0.798108,1.535636
2.59362,-2.004026,-1.971391,-1.643733,-1.872455,-2.175871,-0.9787738,-1.822042,-0.6411634,-0.9464995,-1.592952,-2.871122,-1.518553,-2.710412,-2.047499,-1.830047,-2.050141,-1.426744,-0.9483311,-3.696637,-1.812124,0.5735818,0.1332959,1.251577,0.9269503,0.3505034,1.063835,0.4562672,0.496274,0.659574,0.4499256,0.8822105,0.9258977,0.4739086,0.4524126,0.6472846,1.060056,0.511552,0.8104551,0.800889,1.531755
2.721619,-2.014226,-1.960058,-1.662925,-1.892911,-2.192581,-1.013874,-1.897346,-0.6667189,-0.9629213,-1.57055,-2.909788,-1.54903,-2.773969,-2.128643,-1.870502,-2.181026,-1.440072,-0.9785148,-3.815532,-1.858348,0.5782263,0.1389374,1.255018,0.9284273,0.3383947,1.064417,0.451516,0.501241,0.6650766,0.4398072,0.8745411,0.9167001,0.4685634,0.448697,0.6362677,1.05296,0.5086752,0.8191999,0.8004708,1.540507
2.849618,-2.102789,-1.96506,-1.711649,-1.939361,-2.271377,-1.095772,-2.015088,-0.6973146,-1.004088,-1.603827,-3.011157,-1.622528,-2.91853,-2.25092,-1.947766,-2.409184,-1.484511,-1.045222,-3.975873,-1.938188,0.5872044,0.1456622,1.256424,0.9250804,0.3399774,1.064644,0.4469843,0.4991725,0.6508732,0.4416812,0.8767639,0.906997,0.4703462,0.4377226,0.6259923,1.052006,0.5134533,0.8305767,0.7987185,1.54254
2.977617,-2.15469,-2.009405,-1.805924,-2.018716,-2.382786,-1.202676,-2.133729,-0.7227641,-1.096763,-1.627979,-3.11731,-1.712189,-3.067375,-2.369254,-2.073756,-2.658263,-1.53327,-1.043563,-4.136405,-2.018724,0.5730114,0.1455273,1.259648,0.9243739,0.34115,1.067854,0.4322866,0.4967841,0.668847,0.4325515,0.8779723,0.9128505,0.468551,0.4262888,0.6387039,1.049291,0.5140308,0.8161407,0.8001747,1.547621
3.105616,-2.249838,-2.058818,-1.888575,-2.108191,-2.466389,-1.30566,-2.260231,-0.7621595,-1.158186,-1.676117,-3.239702,-1.80808,-3.226868,-2.493155,-2.159961,-2.870888,-1.585336,-1.138524,-4.302597,-2.111132,0.5738311,0.1483803,1.2613,0.9298977,0.3369256,1.069052,0.4315384,0.4822257,0.6545583,0.4351137,0.8801248,0.9072871,0.4677185,0.416582,0.6380078,1.046729,0.5161531,0.8271746,0.8065729,1.551965
3.233615,-2.316152,-2.108124,-1.977449,-2.191786,-2.588104,-1.431736,-2.409057,-0.8165779,-1.22851,-1.723978,-3.363918,-1.915011,-3.411552,-2.621855,-2.264705,-3.119077,-1.639633,-1.157862,-4.417537,-2.187012,0.5629071,0.1457505,1.261911,0.933058,0.3417194,1.072293,0.4352728,0.4870284,0.6258989,0.4278965,0.8788342,0.8977642,0.4691814,0.416326,0.6384521,1.051226,0.5167376,0.81796,0.8093634,1.545583
3.361614,-2.384549,-2.14336,-1.974364,-2.160239,-2.434001,-1.282287,-2.190948,-0.7875189,-1.085819,-1.702493,-3.147517,-1.733503,-2.989351,-2.244145,-1.986068,-2.398345,-1.523711,-1.034044,-3.831691,-1.918587,0.5662359,0.1579777,1.247753,0.9365254,0.352832,1.073879,0.4421576,0.4808779,0.6443796,0.4421346,0.8854168,0.9042883,0.4813679,0.4368629,0.6329844,1.05904,0.5161615,0.8145857,0.8086346,1.535416
3.489614,-2.119125,-1.993492,-1.718117,-1.936558,-2.172765,-1.017926,-1.833021,-0.671782,-0.9671909,-1.59138,-2.860859,-1.501635,-2.650158,-1.968946,-1.770455,-1.925326,-1.422328,-0.9493067,-3.623277,-1.753238,0.571277,0.1492488,1.252576,0.9321522,0.3450786,1.07081,0.4449016,0.4836924,0.6677094,0.4433413,0.8866395,0.9023273,0.4838032,0.4531988,0.6459199,1.060177,0.5115891,0.8251733,0.8046396,1.530218
3.617613,-2.010486,-1.903138,-1.598082,-1.846321,-2.112452,-0.9556474,-1.772795,-0.6294038,-0.8787771,-1.526986,-2.826,-1.47586,-2.628838,-1.994704,-1.803827,-1.991558,-1.414786,-0.936938,-3.6692,-1.78995,0.6048958,0.1513115,1.254974,0.9330864,0.3414509,1.069098,0.4325564,0.476508,0.6495523,0.4251523,0.8798991,0.9046348,0.4816096,0.4486906,0.6400819,1.045779,0.5091751,0.8191016,0.8014308,1.530733
3.745612,-2.016261,-1.897209,-1.628437,-1.862362,-2.170883,-0.9915755,-1.844097,-0.6491565,-0.8839116,-1.521077,-2.875738,-1.500267,-2.702251,-2.065858,-1.82224,-2.14435,-1.439619,-0.9783928,-3.775103,-1.822771,0.5764642,0.1602838,1.259614,0.9288265,0.350316,1.069121,0.4259653,0.4737158,0.6382082,0.4238058,0.8797472,0.8920943,0.4810242,0.4421549,0.6277266,1.035845,0.514176,0.8410856,0.7993823,1.524264
3.873611,-2.060024,-1.905515,-1.681648,-1.927332,-2.234111,-1.073343,-1.972676,-0.6859652,-0.984386,-1.576101,-2.962471,-1.559553,-2.839156,-2.198712,-1.948748,-2.390856,-1.484165,-0.9721973,-3.922891,-1.90299,0.5894808,0.1639332,1.259452,0.9315177,0.3380325,1.064023,0.41937,0.4664114,0.6455835,0.4399989,0.8762466,0.8767548,0.4769849,0.4323935,0.6343698,1.03535,0.51928,0.8162148,0.8007933,1.527919
4.00161,-2.154297,-1.95639,-1.773539,-2.007365,-2.349356,-1.185281,-2.108584,-0.7234765,-1.051421,-1.611567,-3.064828,-1.657343,-3.003028,-2.329313,-2.021938,-2.618911,-1.528086,-1.048541,-4.080656,-1.990877,0.5827089,0.159761,1.256008,0.9302139,0.3413562,1.064749,0.4186043,0.4788961,0.6589099,0.4433603,0.8779136,0.8807482,0.4773364,0.422496,0.6311076,1.02856,0.5179081,0.817147,0.8087007,1.53593
4.129609,-2.249084,-2.024242,-1.86761,-2.098882,-2.456468,-1.297734,-2.227142,-0.7414232,-1.100464,-1.660116,-3.18129,-1.752385,-3.157487,-2.443044,-2.129154,-2.842971,-1.572631,-1.085567,-4.226123,-2.086485,0.5757087,0.154719,1.250676,0.9326604,0.3440121,1.065867,0.4128991,0.4739988,0.6375136,0.439598,0.8787787,0.8734174,0.4745564,0.4124683,0.6367415,1.02996,0.5153432,0.8140203,0.8127924,1.534771
4.257608,-2.322049,-2.092557,-1.971347,-2.181603,-2.558262,-1.414016,-2.355588,-0.8014337,-1.201849,-1.716013,-3.316464,-1.859193,-3.34605,-2.578205,-2.199413,-3.096106,-1.627896,-1.175464,-4.338327,-2.155972,0.5774136,0.1515768,1.25648,0.932356,0.3341916,1.063619,0.4107086,0.4845785,0.6489648,0.4331104,0.8842617,0.8772982,0.4752599,0.4086903,0.6217499,1.035931,0.5136675,0.8305197,0.8200512,1.527472
4.385608,-2.364686,-2.128916,-1.96952,-2.143592,-2.415169,-1.265212,-2.14136,-0.7553324,-1.059473,-1.67964,-3.078889,-1.686764,-2.928504,-2.206404,-1.946095,-2.360242,-1.519385,-1.009481,-3.74758,-1.894583,0.5653861,0.1539914,1.236949,0.9391566,0.3460969,1.068975,0.4228968,0.4857745,0.6425273,0.4358656,0.8867095,0.8868162,0.4864007,0.4401225,0.6165437,1.038353,0.5163392,0.8084575,0.8183144,1.520699
4.513607,-2.111421,-2.004652,-1.716463,-1.925665,-2.151762,-1.012273,-1.776819,-0.6191688,-0.8480586,-1.563685,-2.813222,-1.42535,-2.608185,-1.933091,-1.739358,-1.893892,-1.41771,-0.9287547,-3.549967,-1.732925,0.5708725,0.1466809,1.239261,0.9372488,0.3400763,1.066678,0.4204545,0.4834992,0.6217957,0.4298201,0.8924899,0.8790025,0.489281,0.4533833,0.6330716,1.041971,0.5166888,0.8288524,0.8190258,1.509282
4.641606,-1.963486,-1.93638,-1.61602,-1.845484,-2.11403,-0.9534281,-1.741478,-0.5944501,-0.8337749,-1.517062,-2.780866,-1.435466,-2.58919,-1.957187,-1.74332,-1.970707,-1.418252,-0.8931968,-3.589061,-1.7571,0.5647421,0.142355,1.246254,0.9349303,0.3370792,1.063122,0.4241415,0.4964561,0.6292685,0.434062,0.8828517,0.8875666,0.4869313,0.4441418,0.6211278,1.031021,0.5150499,0.8089739,0.8170024,1.506086
4.769605,-2.028675,-1.932425,-1.633317,-1.855415,-2.147924,-0.9725392,-1.793981,-0.6017178,-0.8668402,-1.519563,-2.818729,-1.436911,-2.654681,-2.029503,-1.76809,-2.110162,-1.441554,-0.946472,-3.701843,-1.800464,0.5847289,0.1437556,1.245677,0.9324232,0.3420007,1.059136,0.4124675,0.4940607,0.6368305,0.4268506,0.8800489,0.8706314,0.4834734,0.4365596,0.6199352,1.027469,0.5199499,0.8208988,0.8142427,1.506388
4.897604,-2.07048,-1.94432,-1.693815,-1.902213,-2.227973,-1.046311,-1.903673,-0.6283187,-0.9148233,-1.5408,-2.909527,-1.527595,-2.788826,-2.146519,-1.884113,-2.321228,-1.471379,-0.9911886,-3.841698,-1.859347,0.5885134,0.1476381,1.250386,0.9325709,0.3340937,1.059189,0.4037188,0.4879566,0.6490997,0.4372577,0.8767949,0.8751016,0.4849792,0.4243692,0.6268486,1.026146,0.5157204,0.8257014,0.814149,1.507375
5.025603,-2.105628,-1.994169,-1.779872,-1.984836,-2.334439,-1.145518,-2.026472,-0.6530364,-0.9681354,-1.595092,-3.01757,-1.593949,-2.927451,-2.260516,-1.973148,-2.540856,-1.517444,-1.040879,-3.968253,-1.956913,0.5697874,0.1491175,1.251594,0.9392422,0.3448609,1.061653,0.4030953,0.4754433,0.6445752,0.4331458,0.8818382,0.8572377,0.4825638,0.4117453,0.624392,1.024001,0.5188277,0.8125358,0.8201216,1.508978
5.153603,-2.210733,-2.047562,-1.856442,-2.05712,-2.427169,-1.25392,-2.143005,-0.7077341,-1.060665,-1.627906,-3.128836,-1.698897,-3.073758,-2.385322,-2.056683,-2.742852,-1.558856,-1.092145,-4.098467,-2.041376,0.5715463,0.1491652,1.242922,0.9395728,0.3392342,1.061255,0.3978984,0.4868726,0.6382343,0.4320408,0.8844396,0.8709458,0.4823644,0.4143885,0.6043156,1.018564,0.5166361,0.8220953,0.8317536,1.502437
5.281601,-2.28274,-2.107126,-1.948853,-2.141456,-2.534914,-1.36927,-2.275834,-0.7707532,-1.094564,-1.705828,-3.245424,-1.796482,-3.238039,-2.492068,-2.182388,-2.94253,-1.602863,-1.120509,-4.061068,-2.074817,0.5717737,0.1455655,1.24941,0.9429947,0.3372896,1.059349,0.3985359,0.5001774,0.5947862,0.4415705,0.8901275,0.8620689,0.482952,0.406069,0.6303116,1.015728,0.5131125,0.8115276,0.8343742,1.502998
5.409601,-2.241799,-2.085768,-1.88027,-2.04363,-2.321644,-1.164001,-1.975376,-0.6989579,-0.9261848,-1.625456,-2.959266,-1.566283,-2.767257,-2.05986,-1.862826,-2.130054,-1.473417,-1.001827,-3.581234,-1.798692,0.5582266,0.1526429,1.235434,0.9460922,0.3393713,1.063692,0.4069385,0.4770354,0.6329618,0.4173231,0.8944973,0.872017,0.4949889,0.4368595,0.6128694,1.031661,0.5169833,0.8173119,0.8442912,1.495403
5.5376,-2.046969,-1.98167,-1.647425,-1.847355,-2.127238,-0.943925,-1.702998,-0.6166915,-0.847043,-1.548928,-2.750832,-1.366356,-2.548248,-1.879383,-1.730978,-1.789661,-1.38965,-0.929147,-3.429893,-1.728382,0.578229,0.1469955,1.237645,0.9442473,0.346213,1.063239,0.4122365,0.4876085,0.6574122,0.4346682,0.8938886,0.8793427,0.4984196,0.4539448,0.6095172,1.049857,0.5186742,0.8349183,0.8593374,1.488578
5.665599,-1.997461,-1.924723,-1.604003,-1.80877,-2.126719,-0.9656945,-1.744319,-0.6325953,-0.8311949,-1.552047,-2.7547,-1.417506,-2.508715,-1.910536,-1.806695,-1.950082,-1.374644,-0.9355755,-3.42764,-1.797216,0.5851243,0.1468726,1.244124,0.9383429,0.3304643,1.048214,0.4025248,0.4389614,0.6421624,0.4139454,0.9001426,0.8561166,0.5137243,0.4446444,0.5969386,1.018599,0.5269335,0.8198598,0.8675326,1.470616
5.793598,-2.003425,-1.922025,-1.618206,-1.798556,-2.188975,-1.027393,-1.793909,-0.6374614,-0.8117481,-1.542388,-2.746936,-1.493707,-2.481065,-1.953815,-1.880324,-2.118855,-1.374466,-0.9503193,-3.425886,-1.890292,0.5700923,0.1560187,1.241171,0.9475387,0.3166507,1.033594,0.3913302,0.4705256,0.630368,0.4017634,0.9115281,0.8444259,0.5291287,0.4388303,0.5954495,0.9971175,0.5327334,0.820851,0.8856158,1.46109
5.921597,-2.102662,-2.040506,-1.700873,-1.862226,-2.29147,-1.122644,-1.872136,-0.6342693,-0.8348022,-1.584408,-2.817741,-1.571513,-2.501977,-2.054106,-1.932743,-2.335333,-1.40683,-0.9767533,-3.507301,-1.9852,0.5545948,0.1262124,1.235765,0.9409009,0.3097149,1.020386,0.3952415,0.4839689,0.6382427,0.4017509,0.9307456,0.834937,0.550283,0.4360516,0.5867296,0.9801784,0.5269874,0.8164229,0.8900717,1.457157
6.049596,-2.238491,-2.126553,-1.801418,-1.907637,-2.404519,-1.266647,-1.95884,-0.6556558,-0.9260464,-1.625434,-2.909805,-1.65612,-2.557586,-2.158818,-1.994327,-2.538914,-1.447385,-1.030658,-3.575663,-2.079012,0.5584752,0.1040973,1.230538,0.9530162,0.2979257,1.006073,0.3898098,0.4714938,0.6593354,0.4042703,0.9368704,0.8249106,0.566276,0.4322694,0.5806149,0.9681197,0.527015,0.8109194,0.914019,1.452897
6.177596,-2.35875,-2.203367,-1.881826,-1.963429,-2.529204,-1.441962,-2.150452,-0.7354102,-0.9703447,-1.677734,-3.040795,-1.823621,-2.450109,-2.226419,-2.128624,-2.728428,-1.420235,-1.065295,-3.653885,-2.162149,0.5689604,0.0950877,1.233708,0.9625829,0.284898,0.9882755,0.3585334,0.4614056,0.6212224,0.3896265,0.9492216,0.812299,0.6194476,0.4367287,0.5969803,0.9779382,0.5627179,0.8065049,0.9274235,1.439354
6.305595,-2.411413,-2.331849,-1.977418,-2.05656,-2.693323,-1.600254,-2.352187,-0.7975267,-0.9913397,-1.679459,-3.09257,-1.907462,-2.602445,-2.235168,-2.157676,-2.795588,-1.260832,-1.080575,-3.450925,-2.167238,0.5305557,0.07622021,1.230934,0.9687223,0.2737606,0.9772111,0.3108404,0.4692776,0.62121,0.4477072,0.9631751,0.7929642,0.609627,0.4363546,0.6369364,0.9886477,0.6438012,0.8112971,0.9503889,1.432784
6.433594,-2.365188,-2.284933,-1.871009,-1.915949,-2.393026,-1.357852,-1.982113,-0.7497863,-0.7871962,-1.541073,-2.736904,-1.639422,-2.01955,-1.739251,-1.790054,-1.943991,-1.127651,-0.9588741,-3.043851,-1.945325,0.5359527,0.07478308,1.212799,0.9663082,0.2858466,0.9738302,0.3337362,0.4660452,0.6777044,0.4848018,0.9869507,0.7973275,0.6546193,0.4732827,0.6650675,0.9906846,0.6456566,0.81069,0.9485757,1.416456
6.561593,-2.162115,-2.136538,-1.606072,-1.701593,-2.148125,-1.130602,-1.692008,-0.6446071,-0.6349892,-1.424757,-2.493742,-1.465748,-1.755749,-1.572917,-1.624299,-1.675213,-1.06751,-0.8961053,-2.926155,-1.868251,0.5634003,0.08017445,1.216029,0.9664658,0.2880192,0.9710353,0.3402387,0.4500765,0.6802177,0.4813257,0.983052,0.8016998,0.660265,0.4880025,0.6717669,0.981988,0.6445307,0.8090382,0.9366573,1.408378
6.689592,-1.970057,-2.033375,-1.545479,-1.648971,-2.114678,-1.121855,-1.71219,-0.6613554,-0.600006,-1.404899,-2.504362,-1.489784,-1.723944,-1.617213,-1.630724,-1.784769,-1.071395,-0.8741754,-2.968088,-1.910321,0.5332308,0.1023912,1.225699,0.963849,0.2981968,0.9597695,0.3341962,0.4391849,0.6459062,0.4876872,0.9798037,0.8025488,0.673263,0.4815673,0.6794638,0.961978,0.6333867,0.7917727,0.9305236,1.397365
6.817591,-2.055138,-2.023161,-1.571366,-1.674232,-2.156523,-1.185081,-1.78865,-0.666574,-0.6570148,-1.406904,-2.546672,-1.505636,-1.760187,-1.676397,-1.707122,-1.901079,-1.098838,-0.9272876,-3.035203,-1.939956,0.5542187,0.1060254,1.228871,0.9691355,0.2849696,0.9489191,0.3230526,0.4536565,0.6744599,0.4784952,0.9885871,0.792047,0.6777667,0.4681069,0.6652198,0.963246,0.6349839,0.8058475,0.9431733,1.400404
6.94559,-2.14953,-2.097641,-1.643756,-1.731964,-2.263509,-1.232266,-1.872955,-0.6503938,-0.6944059,-1.438955,-2.604829,-1.571993,-1.898856,-1.785343,-1.794665,-2.091418,-1.134737,-1.024377,-3.154279,-2.048544,0.5685738,0.08554633,1.225348,0.9687201,0.2772095,0.9577258,0.3237427,0.4477487,0.6662405,0.4775944,0.9913532,0.7993915,0.6684035,0.4634298,0.6542602,0.9638972,0.6341761,0.8224211,0.9448857,1.398931
7.07359,-2.244231,-2.108056,-1.713079,-1.801215,-2.348863,-1.316731,-1.995217,-0.7377545,-0.7503961,-1.492505,-2.715453,-1.671125,-1.996582,-1.896704,-1.887557,-2.338221,-1.179214,-1.011913,-3.291922,-2.132524,0.5675446,0.1011785,1.229852,0.9689844,0.2856521,0.9597753,0.3263358,0.4494257,0.6814587,0.4849538,0.9882786,0.7962026,0.6715553,0.4581547,0.6753744,0.9499044,0.635664,0.8021588,0.939613,1.393518
7.201589,-2.268843,-2.119087,-1.793993,-1.891739,-2.415953,-1.415362,-2.121947,-0.7959435,-0.8072999,-1.527551,-2.829953,-1.765394,-2.121451,-2.021573,-1.961749,-2.568174,-1.225689,-1.107713,-3.458378,-2.221057,0.5647789,0.124177,1.228301,0.966906,0.292596,0.9556729,0.3209514,0.4388523,0.6721697,0.4851169,0.9905414,0.7925994,0.6764169,0.4510808,0.6497253,0.9448684,0.6322264,0.8064079,0.9456862,1.396083
7.329588,-2.332429,-2.173409,-1.897455,-1.99461,-2.530575,-1.562446,-2.260688,-0.8507916,-0.8545198,-1.585428,-2.881165,-1.861525,-2.169676,-2.015269,-1.95662,-2.521111,-1.217802,-1.064048,-3.228467,-2.140387,0.5525303,0.123563,1.232511,0.9660957,0.2911901,0.9551179,0.3181635,0.4508982,0.6393817,0.4834819,0.9928718,0.7976837,0.6797022,0.4522497,0.6461468,0.9539748,0.6309652,0.7985361,0.9475824,1.386589
7.457587,-2.181117,-2.091999,-1.722678,-1.81541,-2.213854,-1.227297,-1.848804,-0.7089711,-0.69075,-1.480149,-2.547454,-1.57463,-1.767536,-1.627201,-1.643275,-1.776414,-1.096107,-0.9533162,-2.923559,-1.905359,0.5553939,0.1279655,1.220974,0.9635149,0.3085395,0.9586603,0.3424398,0.4442103,0.6863057,0.4917574,0.9971848,0.8110255,0.6850421,0.4941639,0.6711868,0.9684325,0.6367661,0.8074789,0.9405038,1.38842
7.585586,-2.006533,-1.985718,-1.506628,-1.645877,-2.009914,-1.008344,-1.629992,-0.6133524,-0.5651082,-1.372517,-2.360907,-1.422265,-1.619923,-1.533252,-1.529083,-1.618832,-1.052663,-0.901666,-2.942708,-1.853957,0.5873346,0.1227228,1.217947,0.9567453,0.3020425,0.9618235,0.3536699,0.4312803,0.6777948,0.482302,0.9881312,0.8094357,0.6771588,0.4974039,0.6737412,0.9718699,0.6357421,0.8038814,0.9125912,1.382661
7.713585,-1.958248,-1.929844,-1.48479,-1.632422,-2.03808,-1.012978,-1.684356,-0.6481211,-0.6538445,-1.368671,-2.380916,-1.447311,-1.679189,-1.587992,-1.559358,-1.710307,-1.058773,-0.9412691,-3.040774,-1.847526,0.5813434,0.1318078,1.224322,0.9561492,0.305278,0.9574345,0.3449181,0.4338882,0.7305999,0.4771775,0.9815164,0.8119854,0.671824,0.4924339,0.6643028,0.9708285,0.6299693,0.8225048,0.9041311,1.393877
7.841585,-1.92409,-1.898613,-1.513942,-1.67607,-2.079726,-1.043111,-1.771282,-0.6607724,-0.621169,-1.369532,-2.436914,-1.476902,-1.8211,-1.68645,-1.636235,-1.869436,-1.097103,-0.9811609,-3.205801,-1.879152,0.559352,0.1476894,1.226764,0.9503799,0.3082974,0.9617617,0.3437094,0.4239657,0.6736143,0.475497,0.9801841,0.813758,0.653226,0.481301,0.6649018,0.9711897,0.626933,0.8075945,0.890681,1.407425
7.969584,-1.990049,-1.894622,-1.594376,-1.746831,-2.157062,-1.143859,-1.909275,-0.7143046,-0.7600898,-1.423121,-2.53288,-1.578328,-1.95235,-1.825963,-1.746137,-2.114384,-1.156036,-1.007494,-3.338247,-1.96986,0.5777566,0.1612855,1.227572,0.9474155,0.3114221,0.9605122,0.3416632,0.4220804,0.7204213,0.4738454,0.9812331,0.8149677,0.6532928,0.4739649,0.6749449,0.9666092,0.6242611,0.8079525,0.8897237,1.40504
8.097583,-2.100812,-1.943544,-1.692123,-1.836493,-2.262857,-1.242266,-2.040557,-0.7530109,-0.8403583,-1.467206,-2.649424,-1.678825,-2.114513,-1.954942,-1.870049,-2.339514,-1.217994,-1.057645,-3.490393,-2.067591,0.5909173,0.1664211,1.230149,0.9471146,0.3125509,0.9609498,0.3427688,0.4270712,0.7073484,0.4764553,0.9763217,0.8231086,0.6488982,0.4625269,0.6775597,0.9624455,0.6223917,0.8064127,0.8908943,1.41219
8.225582,-2.165252,-1.993573,-1.790555,-1.925843,-2.369923,-1.360062,-2.173754,-0.8080587,-0.8988123,-1.535077,-2.772285,-1.794404,-2.293564,-2.099638,-1.969116,-2.599772,-1.279802,-1.130167,-3.674119,-2.141628,0.5670262,0.1603415,1.226304,0.9478447,0.3125472,0.958167,0.339431,0.439053,0.6940166,0.4895079,0.9730514,0.8220797,0.640565,0.4540905,0.6616914,0.9652767,0.6157458,0.8057084,0.892423,1.421424
8.353581,-2.261913,-2.069527,-1.900357,-2.005311,-2.422364,-1.414864,-2.234902,-0.8154927,-0.9203647,-1.575324,-2.727514,-1.753937,-2.186562,-1.915641,-1.832065,-2.203095,-1.246725,-1.063302,-3.350819,-1.940258,0.5689397,0.1589051,1.222709,0.9473892,0.3155404,0.9635655,0.3424343,0.4221544,0.6914167,0.483195,0.9790834,0.8247831,0.6437312,0.4670891,0.6524402,0.9922149,0.6141845,0.8047307,0.8860543,1.425756
8.481581,-2.061422,-1.952295,-1.661672,-1.772449,-2.086236,-1.079583,-1.797748,-0.6984707,-0.7582943,-1.477021,-2.452799,-1.508406,-1.849648,-1.643574,-1.597262,-1.671019,-1.148264,-0.9531212,-3.088803,-1.789362,0.5819713,0.1663046,1.221573,0.9426785,0.3158476,0.965979,0.3591239,0.4201397,0.7074362,0.4846481,0.977501,0.8355554,0.6487309,0.5020686,0.6624773,0.9948369,0.6136056,0.8071421,0.8802249,1.414931
8.609579,-1.865102,-1.863716,-1.513747,-1.651189,-2.006953,-0.9737629,-1.701689,-0.674604,-0.6852132,-1.439163,-2.379575,-1.456673,-1.808241,-1.621354,-1.618407,-1.680263,-1.138602,-0.9534321,-3.104322,-1.824002,0.5626107,0.1585549,1.214861,0.9413189,0.3119029,0.9543979,0.3670208,0.4374314,0.7150665,0.4786364,0.9832059,0.8368834,0.6447613,0.4902151,0.6686113,0.9845482,0.6113993,0.7990009,0.8853794,1.416218
8.737578,-1.914343,-1.869236,-1.535038,-1.670356,-2.048892,-0.9914518,-1.778757,-0.6918337,-0.6851346,-1.437063,-2.422955,-1.489382,-1.847811,-1.698875,-1.626592,-1.813145,-1.152993,-0.9710182,-3.183136,-1.874777,0.5750794,0.1619597,1.222881,0.9392924,0.3165269,0.9552443,0.3712362,0.4394652,0.6928995,0.478754,0.9712938,0.8320225,0.6430719,0.4955703,0.6523341,0.9784305,0.6089435,0.7982028,0.88723,1.408609
8.865578,-1.979154,-1.85788,-1.571435,-1.711634,-2.103626,-1.082481,-1.895989,-0.730621,-0.7759864,-1.462408,-2.527204,-1.592203,-1.939717,-1.808998,-1.749072,-2.031602,-1.191132,-1.015458,-3.269517,-1.985862,0.5844611,0.1752304,1.222937,0.9396906,0.3156602,0.949151,0.3663222,0.4239097,0.7126762,0.4749486,0.9738987,0.8401063,0.643898,0.4855757,0.6749784,0.9694154,0.6101555,0.8006313,0.8996997,1.406378
8.993577,-2.039002,-1.899358,-1.668888,-1.787007,-2.193504,-1.197054,-2.017304,-0.7649077,-0.8379328,-1.512126,-2.619494,-1.665935,-2.081196,-1.922128,-1.837115,-2.251273,-1.232594,-1.049961,-3.397447,-2.073229,0.5854625,0.1738683,1.226139,0.9378195,0.3132176,0.9481822,0.3652294,0.4379888,0.7072211,0.4710082,0.9745204,0.8393796,0.6456233,0.4722529,0.6727658,0.9644794,0.6090128,0.7934566,0.9022639,1.413896
9.121576,-2.112969,-1.954915,-1.747214,-1.874231,-2.311802,-1.294167,-2.138042,-0.8020078,-0.8773209,-1.565228,-2.737306,-1.765918,-2.221431,-2.057272,-1.954094,-2.451993,-1.285769,-1.139275,-3.591086,-2.127675,0.5642326,0.1723264,1.218196,0.9389991,0.3169186,0.9503066,0.3613666,0.4348207,0.6824519,0.4772337,0.9724802,0.8341111,0.6397395,0.474734,0.689055,0.9728715,0.6092037,0.8087056,0.8903966,1.42494
9.249576,-2.227876,-2.005387,-1.831584,-1.966971,-2.416428,-1.412605,-2.294915,-0.885146,-0.9622222,-1.612567,-2.863614,-1.884448,-2.387577,-2.170926,-2.068033,-2.641342,-1.335529,-1.135182,-3.537412,-2.13993,0.5858816,0.1767441,1.223648,0.9414687,0.318201,0.9478316,0.3628931,0.4365227,0.6750779,0.4692834,0.973897,0.840554,0.6369975,0.459844,0.6755144,0.9698026,0.6109316,0.7941837,0.8967537,1.426384
9.377574,-2.184996,-1.998231,-1.7753,-1.876275,-2.197953,-1.201422,-2.002283,-0.7932422,-0.8370607,-1.570508,-2.598936,-1.643501,-1.983653,-1.762265,-1.726694,-1.841117,-1.212718,-1.015345,-3.138812,-1.882567,0.5565252,0.1735521,1.208903,0.9381406,0.3268776,0.9546701,0.3881328,0.4157617,0.6984756,0.4791294,0.9776565,0.8518871,0.6480333,0.504086,0.6773023,1.002092,0.6128136,0.7995527,0.9012685,1.420505
9.505573,-1.982115,-1.854325,-1.543349,-1.686039,-1.986891,-0.9772183,-1.742082,-0.7359657,-0.6990684,-1.481563,-2.392681,-1.464263,-1.779387,-1.590972,-1.595705,-1.560282,-1.139651,-0.9429683,-3.03381,-1.805321,0.5816076,0.1827109,1.217592,0.9417972,0.330687,0.955805,0.39359,0.4355617,0.7055625,0.484688,0.9731457,0.8561388,0.6448531,0.5160018,0.6875066,1.001633,0.6083189,0.7935584,0.898586,1.424468
9.633573,-1.868396,-1.822366,-1.492745,-1.643348,-1.994376,-0.9791772,-1.781472,-0.721322,-0.7241144,-1.45731,-2.393721,-1.486362,-1.835207,-1.650144,-1.632373,-1.668962,-1.152831,-0.9577004,-3.116273,-1.820556,0.5687117,0.1840179,1.217704,0.9316016,0.3330382,0.948336,0.3942678,0.428389,0.7263747,0.4798998,0.9695237,0.8610113,0.6375943,0.5107261,0.6743398,0.9967281,0.612712,0.7975672,0.8898078,1.430662
9.761572,-1.916749,-1.812812,-1.52336,-1.66553,-2.03969,-1.015718,-1.861616,-0.7077488,-0.7569502,-1.48488,-2.464921,-1.523668,-1.932573,-1.738382,-1.690303,-1.831574,-1.177188,-0.9781644,-3.235236,-1.87821,0.572878,0.1879823,1.221293,0.930715,0.3269462,0.9504858,0.396655,0.4215469,0.7232758,0.5020334,0.968615,0.8669372,0.6313189,0.5034016,0.674743,1.001887,0.6119291,0.7904646,0.8952876,1.44446
9.889571,-1.953569,-1.861507,-1.597447,-1.746433,-2.146642,-1.122197,-2.002919,-0.7721522,-0.8366978,-1.500954,-2.562792,-1.638928,-2.054097,-1.868477,-1.773708,-2.080635,-1.227277,-1.053641,-3.355971,-1.97689,0.5549651,0.1884311,1.218066,0.9319344,0.3285433,0.9494789,0.3984634,0.4369661,0.741705,0.4746918,0.9666371,0.8647135,0.632646,0.4939582,0.6679492,0.9880826,0.6131421,0.8035649,0.8931518,1.449698
10.01757,-2.094021,-1.910455,-1.700529,-1.83003,-2.237899,-1.217035,-2.111784,-0.8137684,-0.890161,-1.560229,-2.682705,-1.73888,-2.203056,-2.013319,-1.907471,-2.285856,-1.279674,-1.064596,-3.53885,-2.048477,0.5614093,0.176006,1.217261,0.9283834,0.3215428,0.948148,0.3921904,0.4502338,0.697705,0.4902488,0.9640992,0.8703046,0.6264953,0.4964461,0.6819349,0.9899856,0.6142483,0.7967352,0.8936511,1.454455
10.14557,-2.162459,-1.943403,-1.773476,-1.928729,-2.33014,-1.313795,-2.257966,-0.8797806,-1.007671,-1.595325,-2.820889,-1.85209,-2.383957,-2.154039,-1.988124,-2.544602,-1.331897,-1.10701,-3.716624,-2.136087,0.5674855,0.1914917,1.221848,0.9294545,0.3433397,0.9534171,0.3981172,0.4387156,0.7315708,0.4778043,0.9584514,0.8632765,0.617301,0.4845923,0.6636215,0.9950744,0.612433,0.7993625,0.890507,1.460056
10.27357,-2.216004,-1.982676,-1.876551,-2.027418,-2.415193,-1.405038,-2.396702,-0.9138209,-1.049521,-1.64862,-2.802169,-1.872845,-2.344415,-2.051442,-1.962724,-2.297163,-1.299697,-1.056914,-3.3927,-1.993667,0.5722774,0.2019547,1.221707,0.9221207,0.3440772,0.9531765,0.4020697,0.4447231,0.7214388,0.4908294,0.9637608,0.8666538,0.6199976,0.4950527,0.6772218,1.002373,0.6064564,0.7979627,0.8941248,1.451364
10.40157,-2.018542,-1.881863,-1.662332,-1.810697,-2.07427,-1.072215,-1.936735,-0.8299708,-0.8597115,-1.553212,-2.492505,-1.58056,-1.972745,-1.695202,-1.677131,-1.639063,-1.188454,-0.9364967,-3.08071,-1.794657,0.5563059,0.2076203,1.216507,0.9207142,0.3521176,0.9618294,0.4322194,0.4560243,0.7474958,0.503256,0.9637067,0.8864274,0.6203862,0.5313895,0.6845375,1.016744,0.6151512,0.8079472,0.891989,1.459253
10.52957,-1.847662,-1.778095,-1.477526,-1.643103,-1.929656,-0.9017316,-1.763986,-0.7283015,-0.7744817,-1.448725,-2.336502,-1.47754,-1.88479,-1.6315,-1.617796,-1.574469,-1.159938,-0.8827302,-3.072746,-1.76588,0.5640354,0.2013124,1.213446,0.9188805,0.3524144,0.9605516,0.4419064,0.4377142,0.7515217,0.4831309,0.9641302,0.8954375,0.6151818,0.524235,0.6888861,1.011477,0.616247,0.8016474,0.8892972,1.457839
10.65757,-1.872541,-1.783319,-1.49663,-1.656009,-1.977265,-0.9262347,-1.849018,-0.7127828,-0.8340189,-1.444621,-2.379364,-1.514987,-2.006404,-1.734305,-1.698642,-1.738137,-1.161951,-0.8664435,-3.239007,-1.766462,0.5718459,0.2046281,1.221282,0.9116279,0.3441324,0.9567524,0.4400778,0.4475389,0.7346866,0.483925,0.9539234,0.8894135,0.5953172,0.5304677,0.695843,1.01715,0.6143584,0.8046548,0.8727626,1.476916
10.78557,-1.931364,-1.799061,-1.553251,-1.721219,-2.079491,-1.005468,-1.988234,-0.7625499,-0.932086,-1.481548,-2.475836,-1.598384,-2.185855,-1.875513,-1.808019,-1.985844,-1.215265,-0.9165259,-3.358596,-1.859448,0.5782409,0.195134,1.220518,0.9090529,0.3400055,0.9593897,0.4421546,0.4560911,0.7437165,0.4829446,0.94734,0.8900871,0.5815033,0.5226735,0.6962519,1.015666,0.6210597,0.798619,0.8777999,1.477361
10.91356,-2.029888,-1.887031,-1.679312,-1.792608,-2.187826,-1.155716,-2.138706,-0.81446,-0.9876498,-1.560799,-2.584927,-1.700269,-2.21751,-1.986759,-1.908096,-2.230039,-1.26296,-1.004885,-3.35708,-2.08022,0.5729316,0.1830693,1.217591,0.909846,0.3299153,0.9470532,0.4492007,0.4585948,0.7351066,0.4925195,0.9621713,0.8925267,0.6059982,0.5169781,0.6749205,0.9995375,0.6136037,0.790856,0.91225,1.440844
11.04156,-2.120106,-1.935823,-1.788893,-1.836906,-2.231836,-1.295337,-2.230064,-0.8793188,-1.022367,-1.5819,-2.695688,-1.800345,-2.230067,-2.077658,-2.005513,-2.402725,-1.296359,-0.9975509,-3.48815,-2.16299,0.562878,0.1922946,1.206523,0.9230177,0.3369011,0.9310321,0.4506776,0.4585165,0.7651681,0.486246,0.9606004,0.8766446,0.6285589,0.5205508,0.6910279,0.9850528,0.6161891,0.7863147,0.9128603,1.439101
11.16956,-2.159578,-1.93329,-1.829769,-1.918884,-2.330301,-1.440509,-2.393486,-0.9481583,-1.137887,-1.655694,-2.851391,-1.959661,-2.288046,-2.203732,-2.099768,-2.661006,-1.370318,-1.03382,-3.377366,-2.324825,0.5711354,0.210648,1.219813,0.9284953,0.3495741,0.9246166,0.4494351,0.4414034,0.7968452,0.4924026,0.9690588,0.8654224,0.6546602,0.50685,0.6752275,0.9721314,0.6126263,0.821417,0.9488027,1.396608
11.29756,-2.208747,-1.842463,-1.771943,-1.805951,-2.077202,-1.340322,-2.126383,-0.8493106,-0.884737,-1.642234,-2.631587,-1.77502,-1.852017,-1.779235,-1.859732,-1.959505,-1.244268,-0.7829164,-2.919581,-2.096343,0.5458999,0.2529643,1.194702,0.9449418,0.3931454,0.9111601,0.4558453,0.4676275,0.7905138,0.5076574,0.972028,0.8616706,0.6838009,0.5430518,0.696882,0.9811484,0.6131927,0.8512934,0.976959,1.386716
11.42556,-1.985737,-1.690588,-1.553684,-1.625481,-1.872275,-1.145066,-1.87662,-0.7656146,-0.7547895,-1.546217,-2.467976,-1.628527,-1.604078,-1.621879,-1.698577,-1.759584,-1.16659,-0.636537,-2.788546,-2.009362,0.5609556,0.2692055,1.198322,0.9413574,0.4026498,0.9084936,0.4679753,0.4857598,0.8368122,0.5180169,0.9716419,0.8628384,0.697349,0.5663817,0.6945397,0.9668804,0.611939,0.8472036,0.9875139,1.375855
11.55356,-1.913124,-1.629339,-1.511945,-1.577572,-1.871356,-1.166687,-1.910477,-0.7031446,-0.7095771,-1.513932,-2.469743,-1.648994,-1.621593,-1.641572,-1.729706,-1.868163,-1.158147,-0.5888891,-2.778323,-2.010359,0.5568411,0.280645,1.201255,0.9373437,0.4065738,0.9009093,0.4708767,0.5080311,0.8260774,0.5199498,0.9765243,0.863912,0.6967833,0.5639566,0.6879243,0.9641604,0.6152676,0.8488703,0.9999114,1.375315
11.68156,-1.954381,-1.63784,-1.526963,-1.589465,-1.924336,-1.221099,-1.990703,-0.6974498,-0.7425621,-1.525219,-2.518113,-1.689308,-1.683833,-1.725448,-1.792621,-2.013407,-1.15563,-0.5790819,-2.89768,-2.008905,0.5705879,0.272569,1.194751,0.9430803,0.4069751,0.8916522,0.4763829,0.5149045,0.8298869,0.5246111,0.9771923,0.8610259,0.6977682,0.5675594,0.7023848,0.9552938,0.6192811,0.8597447,0.9884889,1.373916
11.80956,-1.966732,-1.697754,-1.601759,-1.685942,-1.996515,-1.279713,-2.097091,-0.6792811,-0.8979819,-1.51746,-2.620504,-1.772693,-2.001872,-1.883034,-1.896142,-2.228891,-1.178812,-0.3593607,-3.144694,-1.850673,0.5592132,0.265086,1.200116,0.9389946,0.3975516,0.9020808,0.4771252,0.5287172,0.8511355,0.5170897,0.9633704,0.8867191,0.6511382,0.5570267,0.702566,0.9784527,0.6328883,0.964803,0.9645591,1.468194
11.93756,-1.979281,-1.833951,-1.69511,-1.829549,-2.169091,-1.348843,-2.307038,-0.7469202,-1.169289,-1.508875,-2.773954,-1.933455,-2.122427,-2.129212,-2.086864,-2.602493,-1.233934,-0.2063683,-3.347363,-1.756377,0.5416288,0.2232231,1.218107,0.9207417,0.3685824,0.9177102,0.4968811,0.4963277,0.801733,0.4783676,0.9488007,0.8733552,0.6607354,0.5544838,0.6645356,0.9643025,0.6259398,1.037962,0.9503294,1.528535
12.06556,-2.123549,-1.995525,-1.773629,-1.9805,-2.374669,-1.459953,-2.550767,-0.8632402,-1.42814,-1.552277,-2.919913,-2.133539,-2.388506,-2.38087,-2.274545,-2.949062,-1.324453,-0.3975404,-3.620009,-1.807055,0.5941648,0.1881365,1.239713,0.8961422,0.3366209,0.9234805,0.4921574,0.4668896,0.745746,0.4757972,0.9379435,0.8800667,0.6400599,0.5391122,0.6711032,0.98163,0.6252758,0.9807181,0.928556,1.518355
12.19356,-2.219105,-2.093676,-1.843145,-2.03093,-2.307728,-1.371297,-2.476235,-0.931491,-1.43031,-1.554376,-2.792099,-1.981944,-2.194496,-2.064555,-2.059478,-2.349772,-1.238011,-0.3836425,-3.197817,-1.57371,0.5816738,0.173557,1.234915,0.8835478,0.3287167,0.9321604,0.4954653,0.4704913,0.7583018,0.4728246,0.9331257,0.8778483,0.6292469,0.5633283,0.6775885,1.002023,0.6265354,0.9490895,0.9126278,1.506142
12.32156,-1.981858,-1.985183,-1.595887,-1.818211,-2.083988,-1.114159,-2.093175,-0.8251844,-1.20751,-1.490853,-2.527772,-1.748544,-1.870981,-1.79809,-1.830929,-1.855325,-1.160329,-0.2272276,-2.982151,-1.405483,0.6013076,0.1666241,1.241414,0.8783117,0.3257106,0.937857,0.5036724,0.4353916,0.7401606,0.4778197,0.9412595,0.8913429,0.635462,0.5884643,0.6880327,1.006749,0.6232561,0.9552527,0.9121956,1.505311
12.44955,-1.842279,-1.90626,-1.473032,-1.669356,-2.04872,-1.054847,-2.051961,-0.8518517,-1.1832,-1.462581,-2.459433,-1.732903,-1.854956,-1.823105,-1.871837,-1.917361,-1.169969,-0.05711279,-3.016121,-1.33655,0.5793858,0.1683151,1.238371,0.8866126,0.3271017,0.9336827,0.5018927,0.4460304,0.759898,0.4736499,0.9423848,0.8848804,0.6337982,0.5754116,0.6920412,0.9946829,0.6237058,1.001137,0.9294104,1.533858
12.57755,-1.869859,-1.878336,-1.494311,-1.68248,-2.060533,-1.072801,-2.130471,-0.861942,-1.239465,-1.474432,-2.469729,-1.769412,-1.906699,-1.917598,-1.886804,-2.065718,-1.20319,-0.1013349,-3.112463,-1.36761,0.5745153,0.1776724,1.239559,0.890572,0.3379608,0.9365359,0.5056047,0.4226117,0.8062239,0.4731105,0.9450212,0.8985161,0.6358676,0.5694677,0.6922183,0.9954355,0.621969,1.019427,0.9282866,1.52836
12.70555,-1.95768,-1.864341,-1.570076,-1.698467,-2.125685,-1.185023,-2.232139,-0.8900865,-1.198576,-1.525537,-2.553159,-1.826928,-1.978147,-2.006369,-1.929197,-2.248963,-1.243903,-0.1139272,-3.177017,-1.426948,0.5608541,0.1960045,1.224378,0.8958754,0.337973,0.9272674,0.5073768,0.4383856,0.8078356,0.4622248,0.9522105,0.8911251,0.6430625,0.5613912,0.6873538,0.9813541,0.61519,1.038082,0.9461035,1.532241
12.83355,-2.039772,-1.87501,-1.685942,-1.772746,-2.188257,-1.303373,-2.32307,-0.9032781,-1.16466,-1.569574,-2.670535,-1.898681,-2.046047,-2.104657,-2.005626,-2.435745,-1.268764,-0.04629157,-3.300479,-1.490875,0.5530544,0.2107749,1.211338,0.9061,0.356028,0.9249606,0.5015613,0.4438612,0.8244393,0.4829507,0.9541804,0.8930979,0.6557224,0.5531852,0.7037251,0.9826573,0.6195369,1.043307,0.9609599,1.544094
12.96155,-2.150543,-1.863343,-1.775111,-1.839397,-2.23484,-1.431716,-2.448657,-0.9314159,-1.175326,-1.613641,-2.791209,-1.991249,-2.178602,-2.228667,-2.095359,-2.652891,-1.316064,-0.2357467,-3.342331,-1.625691,0.5735595,0.2398695,1.210251,0.9092032,0.3672863,0.9186916,0.5049378,0.4581623,0.798058,0.4920432,0.9577168,0.8953733,0.6570053,0.5508267,0.6974771,0.9778263,0.6167182,1.022749,0.967392,1.518203
13.08955,-2.143764,-1.845175,-1.766774,-1.80132,-2.08668,-1.318769,-2.23649,-0.8691366,-1.04473,-1.566183,-2.581567,-1.808452,-1.829313,-1.87409,-1.824356,-1.970861,-1.190864,-0.1170387,-2.934261,-1.385033,0.5514809,0.2484966,1.193444,0.9093859,0.380562,0.920572,0.5145074,0.4527782,0.8301035,0.4967565,0.9638886,0.902016,0.6790845,0.5941147,0.7058373,0.998849,0.6159432,0.9973084,0.9666857,1.48907
13.21755,-1.875729,-1.685559,-1.507653,-1.590035,-1.837659,-1.080962,-1.922473,-0.7562292,-0.8662726,-1.471793,-2.327335,-1.596039,-1.586128,-1.648003,-1.666838,-1.64203,-1.092739,-0.02549283,-2.76548,-1.252535,0.5503936,0.2617787,1.199168,0.9097218,0.3939628,0.9226759,0.5348822,0.4573697,0.8257629,0.5102348,0.9714858,0.9194662,0.6819221,0.602938,0.7134432,1.00264,0.6170498,0.9937409,0.9676567,1.490094
13.34555,-1.758323,-1.603621,-1.419043,-1.511112,-1.799521,-1.034543,-1.91348,-0.7374132,-0.8878857,-1.440344,-2.305098,-1.598935,-1.60471,-1.692728,-1.705644,-1.738588,-1.088563,-0.008959375,-2.835196,-1.26097,0.5440657,0.2605804,1.207705,0.9021446,0.3866774,0.9207324,0.5355751,0.4657143,0.8608544,0.5058562,0.9690707,0.9303207,0.6793398,0.6070544,0.735315,1.000022,0.6128804,0.9725628,0.9632009,1.475348
13.47355,-1.786902,-1.597746,-1.441175,-1.539633,-1.822459,-1.078122,-1.976154,-0.7252633,-0.918785,-1.41409,-2.363339,-1.642885,-1.680329,-1.776978,-1.748682,-1.875149,-1.114658,-0.09936477,-2.958737,-1.301336,0.5671054,0.2661128,1.204482,0.8993689,0.3819343,0.9212882,0.5332519,0.4527831,0.87212,0.4970667,0.9701511,0.9347895,0.676428,0.5975204,0.7312351,0.993214,0.6123713,0.9935668,0.9572637,1.483105
13.60155,-1.859053,-1.626423,-1.521776,-1.620045,-1.930676,-1.171193,-2.114604,-0.7724845,-0.9429686,-1.455277,-2.445688,-1.719853,-1.823939,-1.903586,-1.786365,-2.087202,-1.157797,-0.147304,-3.104125,-1.374616,0.5775019,0.2641237,1.203236,0.9002261,0.3884932,0.9205715,0.5381906,0.4746443,0.8458663,0.5001065,0.9696297,0.9380985,0.6704022,0.5898904,0.7101604,0.9931738,0.6078663,0.9655564,0.9564676,1.475505
13.72955,-1.942753,-1.667124,-1.61705,-1.700039,-2.017017,-1.269662,-2.232877,-0.8045439,-0.9972987,-1.483193,-2.560986,-1.810387,-1.954025,-2.026476,-1.873421,-2.266977,-1.217596,-0.2070473,-3.272994,-1.415545,0.5656212,0.2691739,1.201747,0.8986313,0.3848062,0.9188017,0.5340222,0.4674776,0.8510946,0.5051674,0.9728729,0.9508906,0.6655186,0.5812856,0.7031828,1.002369,0.6094704,0.9541247,0.9511364,1.490326
13.85754,-2.018236,-1.709168,-1.705425,-1.790396,-2.111202,-1.380549,-2.375128,-0.857356,-1.108842,-1.523495,-2.68402,-1.908459,-2.122351,-2.157528,-1.986908,-2.478463,-1.265805,-0.2668191,-3.302016,-1.412862,0.5722085,0.2721098,1.208613,0.8979836,0.3852997,0.9248815,0.5394131,0.4782968,0.8597234,0.4953551,0.9760917,0.9538701,0.6596455,0.5758877,0.7187059,1.019113,0.6046318,0.9588525,0.959134,1.505983
13.98554,-1.996647,-1.696709,-1.647518,-1.719195,-1.936154,-1.214753,-2.123199,-0.7869094,-0.9477236,-1.480664,-2.426146,-1.684516,-1.780341,-1.761283,-1.707412,-1.734406,-1.145546,-0.1741438,-2.921733,-1.17721,0.5462137,0.2751483,1.191086,0.8963423,0.3939054,0.9323104,0.5551814,0.4670711,0.8450037,0.5021173,0.9770678,0.966684,0.6725237,0.6042544,0.7259847,1.036618,0.6095558,0.967859,0.9587682,1.50085
14.11354,-1.783365,-1.56961,-1.417618,-1.505877,-1.713582,-0.9848567,-1.819121,-0.6734965,-0.7955806,-1.383742,-2.176116,-1.491263,-1.554889,-1.59009,-1.556349,-1.479646,-1.059245,-0.07912907,-2.785473,-1.080529,0.5708921,0.2756052,1.2003,0.9001928,0.3875694,0.9280332,0.5545245,0.459002,0.8727547,0.5050578,0.981329,0.9769818,0.6746767,0.6221597,0.7358568,1.03375,0.6114163,0.9619815,0.9584525,1.497743
14.24154,-1.71131,-1.506127,-1.344436,-1.443551,-1.71439,-0.9574399,-1.85429,-0.6849894,-0.8096523,-1.381096,-2.195425,-1.512924,-1.599242,-1.650712,-1.604027,-1.59641,-1.06492,-0.08942153,-2.838495,-1.099522,0.573496,0.2711252,1.207418,0.9011284,0.3962215,0.925989,0.5631039,0.4760306,0.8785601,0.513539,0.9835767,0.9910293,0.6697351,0.6200334,0.7356309,1.025215,0.6043029,0.9508206,0.9592777,1.489669
14.36954,-1.71726,-1.50929,-1.37247,-1.470504,-1.762026,-1.004797,-1.928707,-0.6739187,-0.7999125,-1.385247,-2.253877,-1.568794,-1.703732,-1.752472,-1.641538,-1.753718,-1.097954,-0.1365902,-2.987438,-1.140689,0.569849,0.2786089,1.21,0.8987446,0.3901584,0.9266965,0.5573216,0.4586876,0.8508728,0.5046345,0.9742282,0.9951777,0.6588006,0.6180231,0.7187339,1.024763,0.6087591,0.9604315,0.9525305,1.49478
14.49754,-1.786298,-1.539342,-1.454944,-1.549212,-1.847764,-1.094065,-2.066707,-0.716817,-0.9081228,-1.414978,-2.362505,-1.680503,-1.869435,-1.890987,-1.733178,-1.978066,-1.142009,-0.2073608,-3.160935,-1.221565,0.5702662,0.2800045,1.215007,0.9003607,0.3837537,0.9306712,0.5580368,0.4751844,0.890179,0.5019514,0.9747794,1.009665,0.6533991,0.6039305,0.7163696,1.024653,0.6051724,0.9464145,0.9466978,1.504725
14.62554,-1.88473,-1.600704,-1.559144,-1.649076,-1.945533,-1.199361,-2.200531,-0.7426302,-1.022017,-1.472777,-2.491913,-1.765628,-2.030578,-2.022736,-1.85682,-2.186911,-1.195157,-0.2615114,-3.31896,-1.308381,0.5649709,0.2745495,1.218546,0.8941897,0.3839085,0.9339634,0.5604628,0.4631859,0.8734726,0.5195965,0.9746409,1.007308,0.6473527,0.5969425,0.725719,1.0286,0.6074916,0.9457403,0.9449314,1.505672
14.75354,-1.936332,-1.657953,-1.656066,-1.747497,-2.06323,-1.316676,-2.342713,-0.8044343,-1.076585,-1.548513,-2.612071,-1.875351,-2.212416,-2.174118,-1.984852,-2.426579,-1.256363,-0.3516682,-3.450128,-1.423606,0.5569717,0.2720483,1.217652,0.8974248,0.3845159,0.9323607,0.5631008,0.4817084,0.8789198,0.5110592,0.9732962,1.014693,0.6380184,0.5893413,0.7249275,1.027334,0.6084322,0.9463706,0.9530563,1.505674
14.88154,-2.089657,-1.720047,-1.717205,-1.783599,-1.995395,-1.274597,-2.240107,-0.7921962,-1.040002,-1.531053,-2.481491,-1.749896,-1.96545,-1.869269,-1.776926,-1.8632,-1.166573,-0.2508216,-3.038291,-1.221166,0.5752867,0.2675046,1.205682,0.8964458,0.3848093,0.9366506,0.5634066,0.4687497,0.8809368,0.5084203,0.9748656,1.00997,0.6494839,0.6183205,0.7429541,1.042119,0.6055205,0.9212783,0.9539849,1.491358
15.00954,-1.82479,-1.586476,-1.440858,-1.555738,-1.727608,-0.9941546,-1.867287,-0.6709698,-0.8414127,-1.411803,-2.199148,-1.530628,-1.691951,-1.624213,-1.552345,-1.465576,-1.065695,-0.1287923,-2.860245,-1.055961,0.5806345,0.2732213,1.209481,0.8948299,0.3882654,0.937858,0.5762335,0.4760015,0.8873418,0.4934586,0.9750187,1.033989,0.6531417,0.638096,0.7405184,1.052084,0.6086828,0.926112,0.9459496,1.493819
15.13754,-1.651122,-1.513398,-1.328721,-1.458143,-1.683666,-0.9045645,-1.819255,-0.6258771,-0.8598604,-1.391417,-2.164466,-1.521789,-1.692364,-1.655586,-1.601202,-1.537295,-1.071425,-0.1569,-2.956266,-1.059061,0.5608458,0.2687595,1.216449,0.8922799,0.3890059,0.937674,0.5802259,0.474506,0.9034737,0.4983841,0.9686541,1.04091,0.6480269,0.6292576,0.7522873,1.048143,0.6040726,0.9355158,0.9369828,1.494454
15.26554,-1.687104,-1.513632,-1.349687,-1.490551,-1.718623,-0.9361392,-1.886463,-0.63641,-0.8783569,-1.39212,-2.20832,-1.545,-1.774775,-1.734276,-1.607628,-1.653363,-1.092689,-0.1660739,-3.041921,-1.10187,0.5464538,0.2645318,1.215826,0.8898833,0.3854013,0.9368546,0.5772943,0.4657519,0.8911701,0.5057563,0.9655207,1.044833,0.637099,0.6236812,0.7206809,1.043812,0.6040828,0.9191469,0.9361635,1.495728
15.39353,-1.769546,-1.544794,-1.427197,-1.550357,-1.809873,-1.025913,-2.007585,-0.6549507,-0.9245214,-1.443385,-2.295485,-1.639308,-1.926376,-1.856707,-1.722804,-1.849261,-1.134867,-0.2655499,-3.220981,-1.171799,0.5581179,0.2652847,1.21557,0.8867832,0.38236,0.9332316,0.5687196,0.4712378,0.8794284,0.5110874,0.9600646,1.049438,0.6260456,0.6132308,0.7434201,1.056981,0.6042269,0.9342415,0.9320344,1.505038
15.52153,-1.852639,-1.593497,-1.519555,-1.639011,-1.908723,-1.132714,-2.150294,-0.719282,-1.031954,-1.475132,-2.425869,-1.721823,-2.072971,-1.984686,-1.802453,-2.075898,-1.196571,-0.3185224,-3.351041,-1.292928,0.5495017,0.2615656,1.217168,0.88637,0.3806708,0.9321856,0.5707843,0.4743299,0.8916522,0.5000414,0.9603,1.047734,0.6223191,0.6002527,0.7221166,1.052629,0.6055864,0.9029996,0.9295151,1.496303
15.64953,-1.929162,-1.642916,-1.605745,-1.718688,-1.992107,-1.241528,-2.282511,-0.7988105,-1.093,-1.55143,-2.549961,-1.830549,-2.192009,-2.106612,-1.912403,-2.290005,-1.251487,-0.410649,-3.483088,-1.420209,0.5424002,0.2655642,1.217008,0.88608,0.375247,0.9312518,0.5696872,0.4755981,0.8988789,0.5062971,0.9566235,1.04273,0.6235268,0.5894395,0.7322065,1.042121,0.6051227,0.9037001,0.935515,1.495545
15.77753,-2.100425,-1.72768,-1.711313,-1.82692,-2.105972,-1.378697,-2.410933,-0.8145819,-1.173066,-1.616764,-2.617482,-1.914932,-2.235989,-2.113619,-1.896394,-2.230843,-1.247572,-0.4090134,-3.286627,-1.362878,0.5860749,0.2671445,1.219274,0.889423,0.376375,0.9253109,0.5645012,0.4764373,0.8921404,0.5175909,0.9640624,1.040165,0.6301465,0.6002811,0.7220452,1.050021,0.6029634,0.9075825,0.9424934,1.482965
15.90553,-1.946144,-1.671825,-1.565493,-1.668048,-1.854462,-1.112522,-2.001786,-0.700887,-0.958107,-1.508476,-2.325963,-1.625866,-1.868892,-1.742312,-1.621215,-1.593958,-1.13057,-0.3200473,-2.998087,-1.188502,0.5490077,0.2616286,1.207715,0.8875889,0.3891061,0.9325827,0.5800822,0.4688641,0.8793078,0.5010887,0.9709126,1.053615,0.6367307,0.6343314,0.7344674,1.070537,0.5994769,0.9018101,0.9523402,1.48056
16.03353,-1.822308,-1.602248,-1.373309,-1.520181,-1.698045,-0.9428269,-1.814606,-0.6289251,-0.8617622,-1.453403,-2.202861,-1.526009,-1.766656,-1.692312,-1.573359,-1.548829,-1.107832,-0.2887889,-2.966325,-1.229504,0.5920481,0.2455295,1.201544,0.8889775,0.3703345,0.9321212,0.5834348,0.493342,0.900695,0.5124003,0.9637179,1.064704,0.6351723,0.6350999,0.7167528,1.052613,0.6053693,0.8925236,0.9611185,1.471556
16.16153,-1.770226,-1.596835,-1.393145,-1.521205,-1.765202,-0.9818494,-1.880325,-0.6504229,-0.8765284,-1.46397,-2.245657,-1.581208,-1.813345,-1.731381,-1.657333,-1.67683,-1.120124,-0.3618099,-3.009583,-1.320859,0.5746323,0.2430955,1.210086,0.8833673,0.3762321,0.9225579,0.5717513,0.4889142,0.8852298,0.5168054,0.9579249,1.062487,0.6345881,0.6236943,0.7364768,1.040583,0.6024089,0.9182199,0.9635348,1.459563
16.28953,-1.826188,-1.609055,-1.440849,-1.57542,-1.837561,-1.049384,-1.982715,-0.6775129,-0.8934134,-1.474379,-2.346527,-1.669294,-1.933694,-1.843636,-1.752779,-1.865704,-1.161759,-0.3501249,-3.163008,-1.383693,0.5674841,0.247529,1.217819,0.8882614,0.3778188,0.9201717,0.5667835,0.4797808,0.8576723,0.512713,0.9496842,1.057062,0.6304585,0.6129619,0.7442549,1.033406,0.6007106,0.8707033,0.9536231,1.460469
16.41753,-1.899117,-1.648812,-1.524591,-1.657356,-1.919661,-1.152453,-2.138617,-0.7248809,-0.999931,-1.542561,-2.483227,-1.772475,-2.094078,-1.986235,-1.815492,-2.094402,-1.216765,-0.4100485,-3.346361,-1.4567,0.5656419,0.2542838,1.214963,0.8856974,0.3683363,0.9233941,0.569751,0.4768053,0.8766986,0.5217785,0.9467509,1.056706,0.6205404,0.6060957,0.7281084,1.042873,0.6049903,0.8899778,0.9489337,1.471647
16.54553,-1.977396,-1.70304,-1.618285,-1.752062,-2.034957,-1.261894,-2.275665,-0.7705148,-1.108217,-1.584121,-2.616341,-1.877474,-2.234716,-2.123401,-1.935269,-2.317955,-1.272,-0.4896038,-3.501123,-1.575182,0.545071,0.2568786,1.221183,0.8839819,0.380035,0.9279492,0.5663592,0.4704013,0.8942263,0.518698,0.9455001,1.052313,0.617416,0.597652,0.7279764,1.043595,0.6047392,0.8864309,0.9478245,1.475339
16.67352,-2.067177,-1.752867,-1.702166,-1.848721,-2.145303,-1.381266,-2.403439,-0.8311705,-1.167706,-1.644664,-2.744402,-1.993912,-2.398322,-2.266881,-2.042,-2.571989,-1.32902,-0.5966827,-3.639837,-1.689088,0.5508137,0.2557641,1.21432,0.8868983,0.3790593,0.9262053,0.5569222,0.4873465,0.8779844,0.5115133,0.9417133,1.043992,0.6124392,0.5919994,0.729941,1.036563,0.6045057,0.8862131,0.948974,1.472025
16.80153,-2.190563,-1.83075,-1.7942,-1.904797,-2.089293,-1.345984,-2.318892,-0.8178282,-1.099961,-1.63396,-2.621691,-1.870094,-2.155099,-1.960263,-1.859673,-1.974606,-1.249643,-0.4896797,-3.211801,-1.473504,0.5440753,0.2548051,1.203319,0.8873904,0.3812108,0.9280013,0.5651228,0.4785148,0.8829167,0.5086263,0.9469388,1.04642,0.6220042,0.6150936,0.7552075,1.057381,0.6059498,0.8802735,0.9533633,1.469599
16.92952,-1.925095,-1.690828,-1.52694,-1.673967,-1.834463,-1.069519,-1.924308,-0.7164263,-0.9501315,-1.523709,-2.327533,-1.625134,-1.86785,-1.695649,-1.608379,-1.510957,-1.146067,-0.3889108,-2.994827,-1.305121,0.5464492,0.2505354,1.211536,0.8894298,0.3917619,0.9311795,0.5762949,0.4966082,0.9112117,0.5123017,0.9472859,1.056518,0.6261803,0.6359639,0.7447956,1.071121,0.6070908,0.890993,0.9506235,1.471404
17.05752,-1.804693,-1.618532,-1.392732,-1.563387,-1.754836,-0.9746837,-1.858968,-0.683211,-0.8625535,-1.491659,-2.289072,-1.607303,-1.859933,-1.723847,-1.601225,-1.566395,-1.141012,-0.3579989,-3.079391,-1.320997,0.557267,0.2505133,1.211215,0.8833093,0.3759202,0.9286996,0.5720403,0.4978684,0.8773404,0.5173157,0.9412884,1.057333,0.6213244,0.6254308,0.7324427,1.05881,0.6021689,0.8687413,0.9450837,1.469482
17.18552,-1.829771,-1.620613,-1.422016,-1.591379,-1.816119,-1.018851,-1.949588,-0.6940981,-0.9433723,-1.47575,-2.346958,-1.647575,-1.950407,-1.803837,-1.689227,-1.704969,-1.174048,-0.4111201,-3.173467,-1.397744,0.5555792,0.2540464,1.215155,0.8811022,0.3851534,0.9277005,0.5622097,0.4860721,0.8958207,0.5106382,0.9344428,1.057946,0.6077222,0.6198168,0.7516811,1.063528,0.60625,0.8754594,0.9374273,1.476708
17.31352,-1.899139,-1.633349,-1.481103,-1.654612,-1.910847,-1.104149,-2.090166,-0.7306615,-1.007607,-1.507787,-2.457987,-1.735859,-2.102601,-1.93324,-1.759299,-1.912286,-1.214053,-0.462659,-3.345448,-1.464339,0.5688299,0.261055,1.222285,0.8802611,0.3900921,0.9282145,0.5622878,0.473131,0.897507,0.5027031,0.9295563,1.061445,0.5988085,0.609082,0.7428893,1.071576,0.6061065,0.879144,0.9384118,1.485473
17.44152,-2.00263,-1.680317,-1.577931,-1.749578,-2.022413,-1.226441,-2.230221,-0.8079721,-1.090138,-1.563362,-2.590106,-1.837496,-2.242111,-2.071225,-1.862972,-2.157087,-1.271618,-0.5169874,-3.465587,-1.574695,0.5631407,0.2636828,1.221591,0.8848319,0.3897694,0.9303216,0.5581074,0.4823447,0.8825173,0.5021237,0.9318041,1.056899,0.5981851,0.6000698,0.729939,1.063404,0.6097608,0.8569512,0.9498737,1.48471
17.56952,-2.094053,-1.7546,-1.675881,-1.841921,-2.125913,-1.351001,-2.3747,-0.8501653,-1.17476,-1.626657,-2.710494,-1.951904,-2.387168,-2.207543,-2.007065,-2.380408,-1.325987,-0.6049998,-3.610482,-1.684046,0.5667878,0.2655284,1.220228,0.8834508,0.3867876,0.9287999,0.5615143,0.4922482,0.8885068,0.5113341,0.9325283,1.061303,0.5947183,0.6000509,0.7441727,1.062482,0.6080698,0.8769006,0.9505809,1.488617
17.69752,-2.186198,-1.821947,-1.769538,-1.938737,-2.258711,-1.488682,-2.525525,-0.9148319,-1.254648,-1.723572,-2.850842,-2.083482,-2.529901,-2.33181,-2.119882,-2.620314,-1.376997,-0.6590863,-3.570394,-1.735332,0.5715489,0.2584036,1.221369,0.8832256,0.3902451,0.9318025,0.5545601,0.4962407,0.8800935,0.5209971,0.9370064,1.056726,0.5989349,0.5842423,0.7410509,1.057247,0.6093334,0.8769165,0.9559813,1.485826
17.82552,-2.184702,-1.800443,-1.713864,-1.866208,-2.041461,-1.291877,-2.225942,-0.844283,-1.11518,-1.640681,-2.581632,-1.829059,-2.110561,-1.885226,-1.801859,-1.805928,-1.244664,-0.5043687,-3.153902,-1.53791,0.5561004,0.26418,1.212575,0.8878489,0.4034602,0.9377306,0.5684848,0.4728712,0.906082,0.5058872,0.9357868,1.056234,0.6100959,0.6258484,0.7497123,1.068466,0.6054235,0.865939,0.9542965,1.469221
17.95352,-1.885419,-1.646759,-1.463861,-1.653649,-1.831042,-1.074151,-1.951529,-0.7720669,-0.9387487,-1.533379,-2.379042,-1.677116,-1.852396,-1.695398,-1.622344,-1.564006,-1.166086,-0.4594496,-3.027585,-1.474663,0.5549558,0.2787443,1.215716,0.8882185,0.4048897,0.9390889,0.5743999,0.4676717,0.8984841,0.5027022,0.9327214,1.057666,0.6194811,0.6271138,0.7348281,1.057891,0.6093015,0.8892037,0.9483126,1.457812
18.08152,-1.824875,-1.616491,-1.414218,-1.625744,-1.842566,-1.082455,-2.001698,-0.7517909,-0.9225803,-1.510636,-2.387132,-1.707952,-1.875538,-1.774388,-1.669171,-1.740618,-1.176911,-0.4261322,-3.08042,-1.547217,0.576363,0.2724123,1.21514,0.8843629,0.3996651,0.9324286,0.5747079,0.484852,0.8860573,0.5140717,0.9332814,1.054078,0.6227605,0.6240941,0.7508464,1.040954,0.6093665,0.8758233,0.9498747,1.454824
18.20952,-1.881679,-1.623777,-1.446967,-1.659112,-1.905663,-1.144116,-2.100851,-0.7851816,-1.023981,-1.514613,-2.485108,-1.789075,-1.974043,-1.885569,-1.744725,-1.948964,-1.212371,-0.4724996,-3.207392,-1.63192,0.5694726,0.2794238,1.220859,0.8832244,0.4032249,0.9338633,0.5690668,0.4761926,0.9079495,0.5025613,0.9224287,1.05992,0.6171411,0.6130911,0.7331408,1.024054,0.6106922,0.8625128,0.9471331,1.45529
18.33751,-1.936463,-1.651521,-1.537326,-1.742643,-2.020577,-1.254738,-2.247882,-0.8139662,-1.095343,-1.568142,-2.597494,-1.894246,-2.117854,-2.037845,-1.862872,-2.227566,-1.260636,-0.5508683,-3.348172,-1.731322,0.5609483,0.2822072,1.225561,0.8857375,0.4074239,0.9319658,0.5692086,0.4705349,0.8987405,0.5251092,0.9245138,1.056664,0.6152564,0.6089461,0.749194,1.022073,0.6068766,0.8797886,0.950012,1.449002
18.46551,-2.073554,-1.742711,-1.649602,-1.840299,-2.146421,-1.38038,-2.394918,-0.8250259,-1.19579,-1.603226,-2.720678,-2.01592,-2.268844,-2.176145,-1.956457,-2.488408,-1.3153,-0.5823933,-3.496753,-1.840783,0.5712414,0.2729642,1.21893,0.8786646,0.4056309,0.9260454,0.5732864,0.4830928,0.899115,0.5108587,0.9227985,1.050038,0.6153821,0.5976468,0.7308998,1.006951,0.6043162,0.8536316,0.950408,1.447418
18.59351,-2.15169,-1.826708,-1.745945,-1.952507,-2.246872,-1.514866,-2.521104,-0.8803998,-1.272321,-1.673174,-2.857829,-2.129655,-2.417511,-2.311567,-2.100224,-2.756402,-1.371477,-0.6635534,-3.641937,-1.966955,0.5461906,0.2619979,1.214381,0.8849473,0.4057724,0.930326,0.5679598,0.4943379,0.8965678,0.5118351,0.9258189,1.056018,0.6111279,0.5905092,0.7535908,1.005856,0.604029,0.8583795,0.9545869,1.447083
18.72151,-2.249315,-1.921982,-1.846881,-2.044217,-2.381961,-1.651281,-2.668351,-0.9334513,-1.348755,-1.750245,-2.936776,-2.234329,-2.46949,-2.336497,-2.138533,-2.750258,-1.374463,-0.698498,-3.433438,-1.941585,0.5336015,0.2564345,1.215982,0.8815643,0.402956,0.9234459,0.5687275,0.498531,0.8800628,0.5132033,0.9301702,1.054599,0.6179028,0.5947733,0.753959,0.9951022,0.5987124,0.8667385,0.9536926,1.435634
18.84951,-2.179419,-1.846049,-1.70529,-1.879347,-2.082832,-1.360111,-2.244275,-0.8238348,-1.103607,-1.632055,-2.628814,-1.9261,-2.012151,-1.885911,-1.78655,-1.93633,-1.244905,-0.5780309,-3.125333,-1.701245,0.5672704,0.2614724,1.207812,0.8858168,0.4105148,0.9278796,0.5859852,0.4910735,0.9010361,0.4996141,0.9323637,1.059583,0.6258482,0.6241092,0.7501148,1.01895,0.598394,0.8547736,0.9511653,1.436813
18.97751,-1.982455,-1.747363,-1.504137,-1.708426,-1.924757,-1.163469,-2.024656,-0.7551519,-0.9918967,-1.538614,-2.477353,-1.790165,-1.885502,-1.795087,-1.698235,-1.787263,-1.196746,-0.5323165,-3.124669,-1.653402,0.5660747,0.2522317,1.20525,0.8814336,0.4156319,0.9363057,0.5888286,0.5036684,0.9031885,0.5182297,0.9243673,1.063288,0.6222316,0.6265603,0.7656079,1.025591,0.5996628,0.8415824,0.938598,1.435525
19.10551,-1.980254,-1.729289,-1.50106,-1.70274,-1.954364,-1.201784,-2.100147,-0.7514822,-1.044104,-1.526298,-2.51103,-1.834762,-1.951394,-1.857308,-1.736905,-1.891747,-1.204717,-0.5742203,-3.205108,-1.667457,0.5662338,0.2557332,1.206973,0.8783735,0.4070844,0.9315438,0.5858817,0.4938813,0.9089993,0.5044137,0.923341,1.069517,0.6174502,0.6170738,0.754216,1.022199,0.6014379,0.8512346,0.9314797,1.431285
19.23351,-1.994203,-1.727206,-1.541215,-1.7471,-2.025338,-1.264803,-2.202121,-0.7787888,-1.102498,-1.546368,-2.591625,-1.887045,-2.070316,-1.96696,-1.818386,-2.064254,-1.238924,-0.5857266,-3.347044,-1.754536,0.5597925,0.2582415,1.209361,0.8769267,0.4088688,0.9366201,0.5850352,0.4937123,0.9237136,0.5054847,0.9195631,1.062778,0.6085463,0.6109695,0.7634891,1.014749,0.6023736,0.8151658,0.9262627,1.446383
19.36151,-2.066192,-1.770588,-1.624042,-1.832899,-2.117771,-1.363564,-2.339111,-0.8344315,-1.121477,-1.55922,-2.692003,-1.963682,-2.214447,-2.114711,-1.912542,-2.314154,-1.28168,-0.7135409,-3.497521,-1.829309,0.572512,0.263488,1.210426,0.880727,0.4070019,0.9346133,0.5856484,0.507503,0.8911474,0.496093,0.9161621,1.062758,0.6057789,0.6112015,0.7457738,1.025652,0.6021143,0.8514345,0.9200175,1.443523
19.48951,-2.108671,-1.810964,-1.721665,-1.903382,-2.215298,-1.472589,-2.467663,-0.8773226,-1.257222,-1.636883,-2.803978,-2.082775,-2.346833,-2.231117,-1.983289,-2.509998,-1.328981,-0.7595385,-3.616711,-1.923036,0.5321763,0.2609772,1.215341,0.877089,0.4105086,0.9419217,0.5873542,0.501227,0.932663,0.5189717,0.9208897,1.076358,0.6007283,0.5988169,0.7342596,1.020576,0.6028655,0.8307967,0.9358109,1.443899
19.61751,-2.205886,-1.873709,-1.81447,-2.005523,-2.308808,-1.583447,-2.609653,-0.9134722,-1.346894,-1.674724,-2.937013,-2.184023,-2.521468,-2.369811,-2.097133,-2.767031,-1.380138,-0.8102626,-3.769187,-2.03898,0.5456463,0.2626985,1.21087,0.8823881,0.4090202,0.9356428,0.5897579,0.4957283,0.9383259,0.5114388,0.9265532,1.069698,0.5968863,0.5859809,0.7407551,1.027648,0.5997101,0.8234416,0.9358588,1.451634
19.74551,-2.310739,-1.940978,-1.903344,-2.052245,-2.301258,-1.573175,-2.565472,-0.9204612,-1.270823,-1.690196,-2.819346,-2.090668,-2.29814,-2.103501,-1.915117,-2.252468,-1.301582,-0.7724863,-3.340909,-1.855705,0.5400696,0.2591612,1.201684,0.8820447,0.4136876,0.9387159,0.5922135,0.5147774,0.9149796,0.5141816,0.9326604,1.067018,0.6099666,0.6104352,0.7412881,1.033586,0.6000478,0.8311273,0.9481474,1.432653
19.8735,-2.117782,-1.838983,-1.656687,-1.836073,-2.044036,-1.319227,-2.201048,-0.8064049,-1.088874,-1.575411,-2.569421,-1.858336,-2.022865,-1.857413,-1.72445,-1.817877,-1.208718,-0.684872,-3.133024,-1.745678,0.5561501,0.2519999,1.200543,0.8813548,0.4101754,0.9392019,0.6123565,0.5164618,0.9183419,0.508786,0.9393936,1.081862,0.6136287,0.6262686,0.751626,1.045417,0.5965548,0.8184977,0.9486375,1.426244
20.0015,-2.002277,-1.77538,-1.563224,-1.742277,-2.027367,-1.263033,-2.158585,-0.7893822,-1.050426,-1.559044,-2.54788,-1.859334,-2.018459,-1.885296,-1.764096,-1.8914,-1.201814,-0.6843691,-3.166592,-1.818175,0.5617393,0.2496622,1.20325,0.8774927,0.4165988,0.9378686,0.6076669,0.5112047,0.8958227,0.5169708,0.9340451,1.088613,0.6103492,0.6222808,0.7614556,1.029345,0.5966305,0.8097852,0.9536689,1.417844
20.1295,-1.971729,-1.771769,-1.583713,-1.759076,-2.055854,-1.289675,-2.210258,-0.7790584,-1.103214,-1.552151,-2.615059,-1.904362,-2.074182,-1.943646,-1.819228,-2.033036,-1.227174,-0.7386364,-3.264426,-1.886862,0.5231254,0.2523274,1.201677,0.8766707,0.4176727,0.938235,0.6039687,0.4964012,0.9281887,0.5221076,0.9388061,1.093104,0.6114292,0.6145096,0.758481,1.01853,0.5982525,0.8151613,0.9524862,1.406562
20.2575,-2.090666,-1.782536,-1.649317,-1.819732,-2.121305,-1.376503,-2.322532,-0.8160613,-1.16432,-1.575215,-2.715318,-1.990632,-2.199027,-2.062249,-1.884831,-2.273262,-1.265832,-0.7725221,-3.414248,-1.994454,0.5630425,0.2542211,1.204486,0.8771021,0.4151564,0.9353296,0.60249,0.5018405,0.9324363,0.5190418,0.9363714,1.083056,0.6114017,0.6069968,0.7478492,1.017543,0.5990422,0.798031,0.9523906,1.409133
20.3855,-2.130296,-1.816142,-1.727746,-1.902864,-2.209561,-1.475585,-2.470507,-0.8837295,-1.189923,-1.637988,-2.833898,-2.08716,-2.333254,-2.192626,-2.020895,-2.469589,-1.316891,-0.8489522,-3.585496,-2.051652,0.5511579,0.2638825,1.207642,0.8830769,0.4192649,0.9368808,0.6088892,0.4994803,0.8974682,0.5258697,0.9313595,1.084343,0.610392,0.599127,0.7625918,1.009824,0.6015993,0.8226111,0.9459425,1.41413
20.5135,-2.223734,-1.846942,-1.820524,-1.987467,-2.302665,-1.584377,-2.589283,-0.9458475,-1.302557,-1.669685,-2.945769,-2.18683,-2.47802,-2.308955,-2.098829,-2.677718,-1.363255,-0.8998136,-3.697323,-2.117564,0.5484486,0.2712404,1.207702,0.8811266,0.4254862,0.9416115,0.606404,0.5229954,0.9474387,0.5219755,0.9377702,1.091503,0.6033518,0.5927344,0.7447385,1.02124,0.6019646,0.8037409,0.9570069,1.418638
20.6415,-2.308697,-1.908449,-1.905613,-2.080704,-2.402045,-1.69278,-2.721094,-0.9632707,-1.392619,-1.737037,-3.025862,-2.273964,-2.550031,-2.351685,-2.135332,-2.705393,-1.363352,-0.9172713,-3.56029,-2.04858,0.5524384,0.2743429,1.208227,0.8810169,0.423044,0.9438642,0.6016704,0.4992326,0.9394059,0.5229287,0.9386889,1.089104,0.6104927,0.5973595,0.7436392,1.025019,0.5933754,0.8129693,0.9479316,1.40837
20.7695,-2.194837,-1.841447,-1.775023,-1.926885,-2.133591,-1.435168,-2.323792,-0.8557849,-1.151303,-1.63423,-2.703765,-1.978584,-2.127748,-1.914166,-1.790206,-1.926773,-1.236784,-0.8049774,-3.204774,-1.845284,0.5523832,0.2771714,1.197341,0.8804754,0.4323813,0.9481262,0.6167665,0.507317,0.9344561,0.5161459,0.9508736,1.098036,0.6200236,0.6236791,0.7548501,1.0411,0.5976098,0.8201304,0.952401,1.406434
20.8975,-1.978094,-1.779673,-1.584319,-1.765125,-1.97071,-1.228512,-2.085711,-0.7554228,-1.012549,-1.519612,-2.537504,-1.826332,-1.98802,-1.8107,-1.70801,-1.757734,-1.184049,-0.7023674,-3.223975,-1.769505,0.5427365,0.2541463,1.193578,0.8763238,0.4282026,0.9455203,0.6281944,0.5225285,0.9347121,0.5136315,0.9531252,1.106614,0.6162667,0.6305606,0.7635149,1.050348,0.5970659,0.8013656,0.9376528,1.411133
21.0255,-1.979669,-1.74442,-1.56786,-1.750163,-1.983949,-1.241482,-2.150296,-0.7361211,-1.029225,-1.505347,-2.575541,-1.867599,-2.054968,-1.884004,-1.746432,-1.877889,-1.196877,-0.767827,-3.270415,-1.801269,0.5710809,0.2599026,1.196675,0.8762093,0.4197017,0.9478835,0.6232032,0.5125806,0.9446167,0.5161763,0.9518514,1.113233,0.6144675,0.6256671,0.7536401,1.047609,0.5973155,0.8103793,0.9416991,1.410416
21.1535,-2.022049,-1.72644,-1.597208,-1.783231,-2.035017,-1.288515,-2.239348,-0.7756289,-1.102267,-1.540925,-2.65605,-1.927632,-2.156866,-1.984427,-1.804261,-2.061182,-1.229512,-0.7734399,-3.414095,-1.867166,0.5790156,0.2666453,1.200017,0.8732043,0.4239142,0.9561681,0.6196012,0.5023118,0.9612548,0.5286576,0.9471963,1.116439,0.6121715,0.6155593,0.749767,1.042813,0.5987183,0.8045822,0.9389938,1.412685
21.2815,-2.032209,-1.732724,-1.685758,-1.86358,-2.117454,-1.39069,-2.378818,-0.8205008,-1.144709,-1.577702,-2.767378,-2.021106,-2.31634,-2.114192,-1.930882,-2.278304,-1.274496,-0.8349779,-3.58818,-1.945666,0.5385048,0.2799321,1.201041,0.8750657,0.4347458,0.9566846,0.6215873,0.5066904,0.9354023,0.5247232,0.9506283,1.118239,0.6068254,0.6052596,0.7629446,1.045438,0.5954402,0.8028933,0.9354505,1.42092
21.40949,-2.134822,-1.774013,-1.775282,-1.945582,-2.20582,-1.479668,-2.515049,-0.8683431,-1.245741,-1.620863,-2.885201,-2.103086,-2.458332,-2.234593,-2.026682,-2.480389,-1.327601,-0.8780984,-3.733339,-2.027318,0.5578918,0.2847176,1.205867,0.8729547,0.4359396,0.9620519,0.6281882,0.5097782,0.9637825,0.5305877,0.9510394,1.115466,0.6047252,0.5997664,0.7600589,1.045999,0.6000302,0.7937479,0.9364247,1.423705
21.53749,-2.207594,-1.823157,-1.854347,-2.041333,-2.314602,-1.595635,-2.645072,-0.9193457,-1.309172,-1.677126,-3.014226,-2.228909,-2.613528,-2.387051,-2.136434,-2.759199,-1.388977,-0.9540132,-3.802957,-2.137571,0.5612533,0.2921189,1.201901,0.883284,0.4373181,0.9626068,0.6220577,0.5034414,0.949572,0.5168198,0.9588883,1.126101,0.602042,0.594992,0.7566341,1.042695,0.5996827,0.7963181,0.9428148,1.421286
21.66549,-2.300193,-1.848788,-1.863456,-2.019227,-2.164588,-1.473756,-2.458652,-0.8986883,-1.243476,-1.647239,-2.803666,-2.059373,-2.273002,-2.017838,-1.895033,-2.052783,-1.276445,-0.8442383,-3.366503,-1.872806,0.5744558,0.2874941,1.191009,0.8783535,0.4353808,0.9680061,0.6372157,0.5143809,0.9639338,0.5267731,0.958226,1.130008,0.6191123,0.6273522,0.7782021,1.058899,0.5993508,0.8018112,0.9439921,1.412249
21.79349,-1.996971,-1.713057,-1.613264,-1.809356,-1.941571,-1.219915,-2.12614,-0.781243,-1.07874,-1.544333,-2.529726,-1.841856,-2.01612,-1.790645,-1.687577,-1.657112,-1.178427,-0.7367977,-3.224468,-1.711788,0.5519754,0.2879949,1.19463,0.87804,0.4512158,0.9735264,0.6400849,0.5163214,0.9797277,0.5231384,0.9633899,1.135986,0.6186907,0.6440918,0.7823557,1.065327,0.6005948,0.8014435,0.9382809,1.40768
21.92149,-1.876733,-1.635608,-1.508708,-1.727802,-1.888545,-1.150977,-2.10367,-0.7342023,-1.035886,-1.519533,-2.5241,-1.828038,-2.02194,-1.830275,-1.700103,-1.783138,-1.183191,-0.7353549,-3.276679,-1.752102,0.5493817,0.2881184,1.195586,0.8712655,0.4400781,0.9698502,0.6438825,0.5054986,0.9794249,0.5306261,0.9591631,1.139054,0.6205662,0.6323645,0.771549,1.056091,0.5985048,0.8023994,0.93893,1.401605
22.04949,-1.873134,-1.620346,-1.538887,-1.753996,-1.922245,-1.192966,-2.188255,-0.7418552,-1.058297,-1.521635,-2.580073,-1.890305,-2.096103,-1.911775,-1.778826,-1.959832,-1.209493,-0.7991617,-3.37443,-1.815363,0.5510007,0.2959343,1.195644,0.8713296,0.4415155,0.9722078,0.6443383,0.496984,0.9641151,0.5326997,0.9593299,1.148239,0.6183405,0.6245402,0.7687352,1.048865,0.5987958,0.8104302,0.9409156,1.402256
22.17749,-1.944638,-1.633776,-1.607478,-1.816737,-2.005433,-1.275783,-2.314857,-0.7893589,-1.098255,-1.557452,-2.688076,-1.998321,-2.238223,-2.05121,-1.893086,-2.193939,-1.258394,-0.8170198,-3.530462,-1.89536,0.548418,0.3001704,1.198513,0.8701029,0.4384451,0.972943,0.6423532,0.5096327,0.9542518,0.5340049,0.9627069,1.158811,0.6152074,0.6167638,0.7731766,1.04136,0.6016935,0.8001102,0.9413753,1.407051
22.30549,-2.021766,-1.682407,-1.700714,-1.910696,-2.105117,-1.392169,-2.447007,-0.8273482,-1.216674,-1.594619,-2.805986,-2.086804,-2.381872,-2.18153,-1.970944,-2.413811,-1.30593,-0.9065421,-3.661198,-1.986959,0.5478646,0.3015859,1.198664,0.875908,0.4443496,0.9767725,0.640074,0.5014755,0.9783663,0.5289508,0.9614192,1.151316,0.613943,0.6061947,0.7605995,1.035451,0.5995835,0.8076121,0.9427872,1.407488
22.43349,-2.106309,-1.729259,-1.790744,-1.995437,-2.193137,-1.496135,-2.563755,-0.8702075,-1.34773,-1.660127,-2.929055,-2.195199,-2.531721,-2.3191,-2.063339,-2.655804,-1.358513,-0.9586052,-3.804692,-2.084383,0.5486324,0.3052926,1.201915,0.8770261,0.4369207,0.9739268,0.6371176,0.5029076,1.019996,0.5257107,0.9626628,1.152428,0.6112965,0.6042513,0.7514046,1.038769,0.5984339,0.806251,0.949363,1.415675
22.56149,-2.23036,-1.808976,-1.903809,-2.089786,-2.282029,-1.598706,-2.677783,-0.9062011,-1.376508,-1.70923,-2.900807,-2.193224,-2.449322,-2.166639,-2.001702,-2.346807,-1.327158,-0.9043577,-3.481979,-1.922204,0.5620415,0.2978846,1.201344,0.8756831,0.4488078,0.9724864,0.6426967,0.510231,0.9896643,0.5432882,0.9677426,1.15571,0.6211181,0.6151719,0.7567229,1.045442,0.6024573,0.8061247,0.9543203,1.398208
22.68949,-2.097804,-1.715837,-1.665401,-1.87023,-1.960473,-1.276067,-2.228036,-0.7650474,-1.112817,-1.580628,-2.570656,-1.895794,-2.086007,-1.853975,-1.735154,-1.754804,-1.208281,-0.7591815,-3.17933,-1.734071,0.5753294,0.2938138,1.186665,0.8724635,0.4422912,0.9764757,0.665992,0.519136,0.9993269,0.5261855,0.9779957,1.165269,0.6255028,0.6549181,0.779898,1.055473,0.6005538,0.7900127,0.9668735,1.385382
22.81749,-1.903957,-1.639282,-1.507882,-1.719398,-1.833793,-1.121029,-2.044052,-0.6857376,-1.038142,-1.508828,-2.470499,-1.817926,-2.003474,-1.811974,-1.686137,-1.744632,-1.184405,-0.7784211,-3.190223,-1.727009,0.5720068,0.279995,1.19542,0.8752332,0.4441037,0.9762674,0.6640213,0.5224891,1.00128,0.5272902,0.9792719,1.161961,0.6271908,0.6475063,0.7782917,1.050818,0.5976959,0.8143851,0.9602529,1.390883
22.94548,-1.89667,-1.625587,-1.498765,-1.727501,-1.856381,-1.145827,-2.123944,-0.6752646,-1.036109,-1.523453,-2.485575,-1.862554,-2.050162,-1.863507,-1.710116,-1.84976,-1.202335,-0.7921083,-3.251217,-1.783966,0.5566025,0.2819957,1.186448,0.8728288,0.4321133,0.9720455,0.6616352,0.5080744,0.9837753,0.5301521,0.9745476,1.174221,0.6251897,0.6402418,0.7501218,1.03623,0.6026059,0.8064423,0.9650481,1.386395
23.07348,-1.924177,-1.639469,-1.552762,-1.774006,-1.925483,-1.210522,-2.228092,-0.7039793,-1.095408,-1.547076,-2.574999,-1.938802,-2.154875,-1.975073,-1.780284,-2.047812,-1.24324,-0.829089,-3.392078,-1.837838,0.5530404,0.2846457,1.192952,0.8742,0.4324597,0.9686906,0.6596881,0.5162222,0.9943744,0.5314395,0.9744992,1.175831,0.6244508,0.631875,0.7595124,1.030604,0.6046016,0.8048935,0.9639356,1.382158
23.20148,-2.000422,-1.672021,-1.641556,-1.850203,-2.006542,-1.317455,-2.338216,-0.7463123,-1.14299,-1.594279,-2.668601,-2.026698,-2.274779,-2.091567,-1.899484,-2.263885,-1.285271,-0.8610205,-3.513904,-1.929284,0.5602478,0.2807721,1.193594,0.8685769,0.4217617,0.9657322,0.6520885,0.5295243,0.984515,0.5355169,0.9722909,1.177234,0.6249802,0.6209222,0.7681276,1.03333,0.6006589,0.7999879,0.9620017,1.388585
23.32948,-2.059746,-1.722019,-1.738673,-1.931661,-2.108488,-1.419514,-2.451544,-0.7763553,-1.240706,-1.623267,-2.786307,-2.122036,-2.392004,-2.209472,-1.980637,-2.447504,-1.335958,-0.9426977,-3.656664,-1.990863,0.5365337,0.2757466,1.194713,0.8690937,0.4317245,0.9659235,0.65284,0.5190911,1.007187,0.5258308,0.9764422,1.171264,0.6265995,0.6147559,0.7622729,1.025726,0.5999722,0.8119181,0.9609435,1.386781
23.45748,-2.114243,-1.790001,-1.822977,-2.034518,-2.211763,-1.540576,-2.596454,-0.8219622,-1.332934,-1.68426,-2.88316,-2.221917,-2.490225,-2.295276,-2.070117,-2.557296,-1.359993,-0.915821,-3.535027,-1.960519,0.5251995,0.274394,1.195716,0.873161,0.4327293,0.9634425,0.6556558,0.5199075,1.004769,0.5379015,0.9805616,1.171393,0.6297613,0.6189392,0.7708459,1.025254,0.5983787,0.7961937,0.9643126,1.378292
23.58548,-2.104602,-1.744439,-1.697786,-1.907658,-1.964558,-1.307928,-2.255202,-0.7364278,-1.103594,-1.598918,-2.573549,-1.950647,-2.094546,-1.885379,-1.739641,-1.834953,-1.239992,-0.7852997,-3.184923,-1.770071,0.5496119,0.279253,1.181109,0.8762451,0.4261832,0.9646029,0.6643416,0.527901,0.9910899,0.5274404,0.9805676,1.175438,0.6425656,0.6461782,0.7722371,1.048686,0.6025696,0.7989496,0.9687439,1.376166
23.71348,-1.896198,-1.647419,-1.510437,-1.736929,-1.788112,-1.122439,-2.019454,-0.6408316,-0.980437,-1.512225,-2.419245,-1.817699,-1.948425,-1.793887,-1.646413,-1.693294,-1.194651,-0.7361116,-3.184155,-1.717082,0.5529605,0.2704639,1.181166,0.8724566,0.4247648,0.966385,0.6662533,0.5203543,0.990076,0.5233645,0.9799826,1.17572,0.6406665,0.6490198,0.7593877,1.043308,0.6020958,0.7884806,0.9678448,1.37887
23.84148,-1.850363,-1.613106,-1.482783,-1.719624,-1.81931,-1.134704,-2.070197,-0.6562707,-1.010606,-1.506053,-2.43895,-1.855371,-1.985417,-1.832923,-1.67838,-1.789475,-1.203961,-0.7480667,-3.188409,-1.740436,0.538922,0.2658168,1.184624,0.8689843,0.4236891,0.9594549,0.6571452,0.5348564,0.9918745,0.5291077,0.9785941,1.185124,0.6385754,0.6390447,0.7558068,1.02943,0.601537,0.7999735,0.9666172,1.371684
23.96948,-1.891125,-1.626665,-1.52557,-1.748598,-1.879602,-1.192328,-2.15034,-0.6604691,-1.033609,-1.522313,-2.504666,-1.920773,-2.082865,-1.926608,-1.723393,-1.954647,-1.235021,-0.8029094,-3.301859,-1.811623,0.5357401,0.2667624,1.187546,0.8701581,0.4201606,0.9534509,0.6517884,0.5272773,0.9742582,0.522004,0.9773204,1.186235,0.6372176,0.6326839,0.7479538,1.022225,0.5994201,0.8032957,0.9717258,1.375779
24.09748,-1.968601,-1.673024,-1.599297,-1.824259,-1.963449,-1.295767,-2.276551,-0.67851,-1.118409,-1.554828,-2.601053,-1.992222,-2.20989,-2.052791,-1.83766,-2.172563,-1.281891,-0.8548545,-3.428272,-1.869486,0.531831,0.2641752,1.186202,0.8701211,0.41102,0.9521579,0.6547228,0.5290117,1.015427,0.5260224,0.9739203,1.187319,0.6340117,0.6232165,0.7594861,1.026657,0.6031258,0.8015664,0.9689763,1.373267
24.22548,-2.0603,-1.736142,-1.696535,-1.90139,-2.056859,-1.384304,-2.375021,-0.7252601,-1.164232,-1.604273,-2.712595,-2.075134,-2.325032,-2.168193,-1.931658,-2.360183,-1.331753,-0.8710394,-3.568636,-1.955653,0.5490567,0.260913,1.18896,0.8697375,0.4151265,0.9489242,0.6465238,0.5265233,0.9875235,0.5294809,0.9711229,1.180901,0.6362211,0.6131129,0.7612416,1.019315,0.5997705,0.7935094,0.9690085,1.37688
24.35348,-2.130852,-1.787855,-1.769535,-1.990038,-2.165002,-1.502972,-2.514917,-0.7566383,-1.254316,-1.665221,-2.843956,-2.20041,-2.482298,-2.301016,-2.038048,-2.604852,-1.383693,-0.9301984,-3.594355,-2.027736,0.5464489,0.260829,1.18793,0.8734846,0.4151967,0.9477265,0.6472678,0.5126681,0.9844339,0.5291569,0.9755495,1.182194,0.6337364,0.6077854,0.7480643,1.018715,0.5982742,0.8013262,0.9740857,1.369499
24.48147,-2.123422,-1.802074,-1.749929,-1.939351,-1.988868,-1.355472,-2.27882,-0.7313023,-1.109419,-1.618712,-2.628,-1.993609,-2.134154,-1.921614,-1.747984,-1.865433,-1.263448,-0.7985918,-3.16257,-1.776227,0.5296746,0.2613382,1.177853,0.8734807,0.4117657,0.951582,0.6561188,0.5283401,0.9911817,0.5285595,0.9738802,1.186049,0.6462734,0.640819,0.7539352,1.034784,0.600218,0.7973331,0.98248,1.364091
24.60947,-1.923492,-1.671023,-1.507775,-1.724583,-1.778786,-1.102184,-1.970848,-0.6351566,-0.9654011,-1.505193,-2.3356,-1.764428,-1.880896,-1.709971,-1.584863,-1.56654,-1.167225,-0.6861674,-3.003719,-1.656917,0.5480633,0.2587289,1.184132,0.8723541,0.4155546,0.9460558,0.6618887,0.5390967,0.9923488,0.5275761,0.9788225,1.179657,0.6486318,0.6542675,0.7659009,1.038941,0.5977779,0.7796566,0.9761907,1.362988
24.73747,-1.819149,-1.608706,-1.414613,-1.651586,-1.761413,-1.062184,-1.964999,-0.5900967,-0.9319732,-1.474618,-2.342762,-1.763321,-1.905465,-1.758902,-1.577945,-1.667451,-1.173944,-0.7061294,-3.067034,-1.679542,0.547146,0.2541609,1.187149,0.8706128,0.4100169,0.9445728,0.6539767,0.5212049,0.981603,0.5172269,0.9725012,1.173527,0.646953,0.6405418,0.7410524,1.026927,0.5957926,0.7916652,0.9777201,1.35694
24.86547,-1.831477,-1.598463,-1.435847,-1.664736,-1.806981,-1.092212,-2.031406,-0.6067731,-0.9650413,-1.478027,-2.396378,-1.826213,-1.980669,-1.841617,-1.640131,-1.82079,-1.193181,-0.739888,-3.159868,-1.751629,0.5490767,0.2574833,1.187035,0.8662555,0.4126911,0.9386613,0.6424664,0.5118313,0.9827183,0.5139702,0.966244,1.182928,0.6438348,0.6341381,0.7418432,1.016142,0.5946666,0.7889006,0.9710771,1.356236
24.99347,-1.918333,-1.63117,-1.510797,-1.738225,-1.885122,-1.189585,-2.170954,-0.6362079,-1.011258,-1.48861,-2.499282,-1.917727,-2.11051,-1.972025,-1.754954,-2.048088,-1.237397,-0.785318,-3.306644,-1.817943,0.5715451,0.2603137,1.189369,0.8680698,0.4079283,0.938081,0.6432309,0.5091236,0.955111,0.4971076,0.9627578,1.180243,0.6421994,0.6268849,0.7466523,1.012338,0.595067,0.79329,0.9697782,1.360189
25.12147,-1.978687,-1.685577,-1.610333,-1.823297,-1.989831,-1.304128,-2.292101,-0.6931346,-1.095082,-1.557201,-2.616801,-2.006466,-2.24685,-2.089303,-1.828423,-2.255737,-1.285767,-0.838165,-3.431884,-1.890788,0.5412212,0.2613444,1.191755,0.8688762,0.4044631,0.9385372,0.6394766,0.5142005,0.9830878,0.5188293,0.9636444,1.180932,0.6398588,0.6135348,0.7353659,1.013003,0.5957844,0.7991916,0.9678314,1.363808
25.24947,-2.045889,-1.742254,-1.689851,-1.904208,-2.07438,-1.404101,-2.40169,-0.7418452,-1.188854,-1.599193,-2.734332,-2.078967,-2.382048,-2.219302,-1.92816,-2.460406,-1.33161,-0.9183071,-3.574781,-1.989895,0.5406274,0.2600645,1.186515,0.867944,0.3996519,0.934718,0.6312311,0.5123433,0.9994094,0.5153858,0.9592413,1.165305,0.6370112,0.6102586,0.7395577,1.011591,0.5919679,0.8137695,0.9713258,1.368918
25.37747,-2.158177,-1.807165,-1.786271,-2.001484,-2.174893,-1.528926,-2.544184,-0.7979188,-1.257669,-1.646796,-2.780511,-2.148812,-2.398134,-2.18004,-1.941851,-2.345021,-1.326441,-0.864825,-3.347711,-1.891728,0.5565659,0.2579288,1.18791,0.8644218,0.3912062,0.9327784,0.6337601,0.5183279,1.001206,0.5159985,0.9624475,1.173908,0.6432843,0.6190442,0.74385,1.017967,0.5935071,0.7960678,0.9697766,1.365921
25.50547,-2.026087,-1.713224,-1.585696,-1.795799,-1.865659,-1.20913,-2.097974,-0.6854582,-1.042338,-1.554669,-2.448294,-1.833078,-1.982315,-1.779167,-1.630225,-1.666983,-1.189127,-0.741664,-3.004824,-1.655266,0.5541031,0.2626376,1.178313,0.8659247,0.4038084,0.939191,0.645368,0.5130733,0.9991241,0.5302012,0.9670746,1.171987,0.6502907,0.6483457,0.7511353,1.036238,0.5962673,0.8048024,0.9735275,1.35498
25.63347,-1.780183,-1.601415,-1.381371,-1.595927,-1.680076,-1.000783,-1.860566,-0.5643841,-0.8960195,-1.448038,-2.24889,-1.683509,-1.822755,-1.689901,-1.52313,-1.547666,-1.124773,-0.6671549,-2.982892,-1.614378,0.5281732,0.2532723,1.179983,0.8615949,0.4015529,0.9406992,0.6483477,0.4964029,1.001356,0.5317989,0.960666,1.166423,0.6510811,0.6514911,0.7470953,1.027505,0.5914958,0.7995074,0.963331,1.357569
25.76147,-1.753139,-1.573533,-1.355323,-1.576374,-1.713707,-1.012823,-1.930858,-0.589638,-0.8894094,-1.411213,-2.278933,-1.719995,-1.882641,-1.748644,-1.573726,-1.656724,-1.133081,-0.675406,-3.036229,-1.658094,0.5401248,0.259903,1.18177,0.860831,0.3940852,0.9327695,0.6286365,0.4986754,0.9738916,0.5192356,0.9539453,1.171841,0.6490907,0.6393616,0.7560008,1.017749,0.5909361,0.7952506,0.9626799,1.355067
25.88947,-1.79717,-1.570536,-1.393561,-1.615918,-1.78326,-1.087305,-2.041205,-0.6170681,-0.9748217,-1.422939,-2.363049,-1.775758,-1.989786,-1.857293,-1.635273,-1.857717,-1.166492,-0.7256752,-3.157876,-1.730291,0.5472662,0.2612639,1.184404,0.8647372,0.3933011,0.9322022,0.6267067,0.4956577,0.9910123,0.5128843,0.9514194,1.163019,0.6440832,0.6344095,0.7448025,1.013661,0.5954404,0.7856346,0.9575484,1.359031
26.01746,-1.911874,-1.607751,-1.488816,-1.697215,-1.872974,-1.183505,-2.174989,-0.6471255,-1.020879,-1.447626,-2.46805,-1.861324,-2.132403,-1.982373,-1.74598,-2.075809,-1.204457,-0.7815174,-3.300311,-1.805228,0.5681739,0.2598785,1.185162,0.8605647,0.3827174,0.9276237,0.6251411,0.4986095,0.9657943,0.4991272,0.9512944,1.168737,0.6371189,0.6207666,0.737357,1.008704,0.5926811,0.7969723,0.9633648,1.362389
26.14546,-1.975381,-1.668143,-1.576256,-1.791068,-1.979627,-1.297911,-2.309132,-0.6888948,-1.1083,-1.503247,-2.593983,-1.968218,-2.275609,-2.12496,-1.840957,-2.318851,-1.257163,-0.8065298,-3.450005,-1.902801,0.5558795,0.2582527,1.178224,0.8595093,0.3860646,0.926095,0.6232938,0.4909649,0.9797377,0.5060731,0.9472544,1.171349,0.6340491,0.6171445,0.7324405,1.009252,0.5931029,0.7814767,0.9588844,1.366893
26.27346,-2.038332,-1.734455,-1.671181,-1.876304,-2.093888,-1.406266,-2.42732,-0.7401947,-1.172165,-1.564096,-2.732299,-2.07338,-2.424169,-2.245378,-1.920083,-2.539173,-1.310327,-0.8686121,-3.593875,-1.985607,0.5281999,0.2587602,1.173947,0.8571607,0.3916301,0.9230234,0.611998,0.4931888,0.9635054,0.5095079,0.9479991,1.16864,0.6302406,0.6050749,0.7199771,1.009912,0.5919129,0.7822714,0.960079,1.36582
26.40146,-2.220327,-1.820467,-1.776953,-1.978855,-2.214988,-1.548121,-2.585424,-0.805151,-1.298256,-1.610863,-2.840436,-2.184747,-2.572516,-2.347985,-2.044538,-2.68994,-1.34055,-0.9038228,-3.469427,-2.008079,0.5642605,0.2517089,1.176501,0.8546872,0.3808098,0.9226204,0.612707,0.5145927,0.96687,0.4969269,0.9507353,1.169003,0.6238596,0.6036391,0.7281577,1.004874,0.5896235,0.7805587,0.9689055,1.359679
26.52946,-2.160036,-1.783559,-1.686424,-1.852692,-1.954964,-1.308892,-2.211467,-0.7125102,-1.084234,-1.544222,-2.529127,-1.888248,-2.106868,-1.877935,-1.703331,-1.850856,-1.197339,-0.7689127,-3.065382,-1.760232,0.553595,0.2528854,1.158984,0.8576562,0.3814657,0.9301122,0.6288092,0.4995795,0.9684348,0.4987753,0.9507473,1.161943,0.6409053,0.6365894,0.7429948,1.019498,0.5895509,0.7852383,0.9649978,1.352206
26.65746,-1.873483,-1.677623,-1.45423,-1.642183,-1.752888,-1.064403,-1.922421,-0.6013824,-0.930488,-1.413706,-2.29169,-1.706052,-1.894496,-1.694182,-1.505861,-1.573646,-1.107609,-0.6967201,-3.017604,-1.668212,0.5294465,0.2412279,1.162452,0.8528432,0.3859038,0.9262372,0.6303062,0.5011682,0.9649274,0.5062066,0.9470715,1.169299,0.6387203,0.6387178,0.7249825,1.024816,0.5866357,0.7908185,0.9495985,1.360759
26.78546,-1.816322,-1.618577,-1.410841,-1.584827,-1.762649,-1.050236,-1.959325,-0.6245626,-0.957732,-1.392435,-2.322151,-1.739379,-1.951889,-1.769194,-1.554372,-1.73392,-1.114301,-0.7055234,-3.081954,-1.703397,0.5452503,0.2445289,1.175032,0.8503243,0.3825306,0.9283133,0.6188168,0.4937109,0.9837072,0.5046906,0.9318989,1.151447,0.637526,0.6313193,0.7275316,1.02163,0.5843416,0.789725,0.945437,1.351772
26.91346,-1.837507,-1.605514,-1.430849,-1.611118,-1.817036,-1.109954,-2.051975,-0.6282516,-0.9867202,-1.387806,-2.37213,-1.785529,-2.056812,-1.855706,-1.609416,-1.902286,-1.138414,-0.7645837,-3.185208,-1.781535,0.5387511,0.2480423,1.170313,0.8476817,0.3777778,0.9222741,0.6116987,0.4920703,0.958299,0.5050243,0.9368584,1.164168,0.6280032,0.6232892,0.7059067,1.00909,0.5845223,0.796749,0.9467294,1.365075
27.04146,-1.877522,-1.649174,-1.506909,-1.677494,-1.911059,-1.193447,-2.170748,-0.6590518,-1.02164,-1.414632,-2.492404,-1.860864,-2.185402,-2.00436,-1.71349,-2.125503,-1.183506,-0.8103952,-3.387524,-1.820413,0.5144048,0.2470511,1.167054,0.8414401,0.3777303,0.9263567,0.6091595,0.4981755,0.9641315,0.507345,0.9279262,1.153293,0.6243856,0.6180366,0.7203947,1.013116,0.5873249,0.7935957,0.9366405,1.376497
27.16946,-1.986812,-1.685937,-1.59596,-1.758849,-2.012772,-1.301934,-2.304067,-0.70759,-1.091378,-1.458313,-2.609246,-1.94832,-2.341698,-2.131666,-1.817197,-2.35587,-1.232681,-0.8375757,-3.478951,-1.946072,0.5316592,0.2488824,1.169258,0.8462604,0.3747054,0.9211687,0.6017345,0.4904112,0.9449538,0.4942068,0.9277679,1.157331,0.6122525,0.6094813,0.7140945,1.013123,0.5900326,0.7686329,0.9481616,1.379777
27.29745,-2.095166,-1.752174,-1.69324,-1.85304,-2.112667,-1.417007,-2.443239,-0.7522928,-1.190353,-1.525132,-2.738683,-2.061422,-2.492643,-2.256476,-1.950981,-2.589331,-1.286489,-0.9396545,-3.627512,-2.02531,0.5283278,0.2516127,1.166537,0.848152,0.371969,0.9244778,0.6054822,0.4886176,0.9529437,0.5051966,0.9285843,1.15625,0.6096917,0.5957419,0.7259337,1.008558,0.5839996,0.7909074,0.9457527,1.371782
27.42546,-2.19475,-1.812884,-1.799585,-1.938688,-2.232544,-1.547124,-2.580403,-0.8349384,-1.323155,-1.585316,-2.881955,-2.1778,-2.635061,-2.405225,-2.039277,-2.858569,-1.35546,-0.9864014,-3.773714,-2.13736,0.5313557,0.2484984,1.170567,0.8464817,0.3765438,0.922755,0.6061093,0.5041522,0.968465,0.497722,0.9301767,1.144548,0.6136047,0.5883004,0.7006202,1.0028,0.5880062,0.7977601,0.9486468,1.381692
27.55345,-2.223564,-1.880569,-1.859304,-1.973109,-2.145936,-1.493929,-2.467007,-0.7861685,-1.195516,-1.58746,-2.73831,-2.062024,-2.336859,-2.082633,-1.854523,-2.252072,-1.26198,-0.8652062,-3.31316,-1.924226,0.5050751,0.2428842,1.151831,0.8466344,0.3729683,0.9232785,0.6081491,0.4903393,0.954755,0.5179588,0.9324247,1.145378,0.6274539,0.6129524,0.7320109,1.019669,0.5848793,0.7754606,0.9547982,1.369554
27.68145,-2.026465,-1.76683,-1.598062,-1.754415,-1.910742,-1.232845,-2.100058,-0.6863996,-0.9868123,-1.488422,-2.472325,-1.830532,-2.055739,-1.826959,-1.596028,-1.795041,-1.164161,-0.784973,-3.110844,-1.791238,0.5319266,0.2342448,1.148841,0.8437886,0.3743888,0.9214969,0.6181629,0.5045351,0.9278839,0.5100721,0.9407485,1.151047,0.6289816,0.6280676,0.7228322,1.021684,0.5830086,0.7668802,0.9568564,1.366162
27.80945,-1.931288,-1.708398,-1.493872,-1.655609,-1.867878,-1.175181,-2.046608,-0.6388631,-1.006255,-1.445356,-2.446162,-1.80786,-2.042209,-1.866431,-1.602841,-1.882722,-1.15802,-0.7953398,-3.153086,-1.813645,0.5343533,0.2259338,1.143861,0.8370014,0.3724142,0.9188904,0.6135074,0.5010557,0.9472569,0.4998515,0.9349046,1.14325,0.6255488,0.6259705,0.7102715,1.011366,0.5813305,0.773961,0.9494442,1.363321
27.93745,-1.924372,-1.713632,-1.534786,-1.671839,-1.91485,-1.199391,-2.106146,-0.6466699,-0.9822435,-1.438714,-2.487873,-1.841998,-2.095726,-1.932247,-1.674248,-2.031044,-1.180117,-0.8371226,-3.246387,-1.867852,0.5129081,0.2286701,1.148111,0.8396704,0.3672138,0.9129381,0.6077303,0.5049002,0.9374999,0.5021394,0.9351246,1.139987,0.6281789,0.612314,0.7128356,1.00237,0.5863369,0.7799879,0.9546753,1.367312
28.06545,-2.023595,-1.744827,-1.606382,-1.728348,-2.001866,-1.293545,-2.221433,-0.6818612,-1.045657,-1.466023,-2.587339,-1.945439,-2.228101,-2.06328,-1.782074,-2.262939,-1.225928,-0.8781535,-3.382339,-1.95531,0.5488601,0.2256301,1.142517,0.8346177,0.3680487,0.911566,0.6060733,0.5143351,0.9332114,0.5065125,0.9359663,1.152542,0.6244555,0.6065187,0.7201284,1.00476,0.5853156,0.7804826,0.9551209,1.377416
28.19345,-2.088005,-1.791279,-1.698366,-1.807798,-2.092022,-1.402232,-2.34926,-0.719416,-1.134006,-1.513339,-2.699427,-2.028328,-2.363266,-2.204965,-1.871179,-2.479847,-1.273301,-0.9637893,-3.526709,-2.044556,0.5195038,0.2231268,1.146378,0.8381602,0.3619294,0.914327,0.6020689,0.5232412,0.9213821,0.5039461,0.9372367,1.150289,0.6202722,0.5994984,0.7127668,0.9998028,0.5832639,0.7925966,0.9548128,1.377808
28.32145,-2.145109,-1.850164,-1.779729,-1.905912,-2.197578,-1.510511,-2.492322,-0.7699184,-1.205719,-1.55181,-2.834848,-2.140904,-2.513756,-2.328161,-1.998537,-2.710247,-1.329811,-1.013407,-3.686719,-2.129841,0.5198667,0.2263625,1.142698,0.8429592,0.3670681,0.9139559,0.607824,0.5108249,0.9493214,0.4912228,0.9399763,1.151116,0.6199615,0.586719,0.7259168,1.008062,0.5823056,0.7800515,0.9505519,1.383121
28.44945,-2.255243,-1.893709,-1.877107,-1.994336,-2.301589,-1.634661,-2.633672,-0.8466302,-1.324998,-1.637095,-2.984914,-2.262882,-2.68766,-2.478922,-2.131303,-2.972641,-1.400517,-1.082013,-3.848941,-2.227442,0.5267231,0.2330049,1.147871,0.8439367,0.3701323,0.9213993,0.6069798,0.5138246,0.9804038,0.5103903,0.9421299,1.153972,0.6143796,0.5809913,0.7251145,1.017056,0.5844874,0.7841248,0.9503785,1.395482
28.57745,-2.33933,-1.940699,-1.9288,-2.027923,-2.221456,-1.572092,-2.531328,-0.844175,-1.184835,-1.628284,-2.839056,-2.126047,-2.401613,-2.154621,-1.919061,-2.333804,-1.302053,-0.9506438,-3.410878,-1.993538,0.5220972,0.2386178,1.130051,0.842572,0.3796313,0.9224579,0.6139503,0.5050589,0.9379179,0.5054829,0.9428035,1.149823,0.6261505,0.6071588,0.739982,1.028909,0.5795517,0.7720347,0.9518244,1.38235
28.70545,-2.031879,-1.779002,-1.651571,-1.787939,-1.961192,-1.28867,-2.140843,-0.7353187,-1.028247,-1.522874,-2.559805,-1.864354,-2.105179,-1.871938,-1.657277,-1.803146,-1.201046,-0.8697694,-3.196353,-1.816215,0.4990843,0.2431939,1.138862,0.8474042,0.3941824,0.9295732,0.6206971,0.4983891,0.9508391,0.5054905,0.9464378,1.159835,0.6262714,0.6239998,0.7265203,1.047593,0.5786152,0.7866381,0.9473775,1.388536
28.83344,-1.934882,-1.674194,-1.50924,-1.679413,-1.866449,-1.174496,-2.064356,-0.7063633,-0.9518706,-1.465956,-2.503006,-1.83429,-2.094843,-1.882491,-1.687818,-1.841176,-1.202286,-0.8653239,-3.264314,-1.806804,0.5443928,0.2460824,1.141086,0.8447444,0.3862592,0.9311613,0.614369,0.5046986,0.9166108,0.5013244,0.9369695,1.163592,0.6199573,0.6156025,0.748179,1.046426,0.5832162,0.7857982,0.9467456,1.391543
28.96144,-1.988418,-1.649616,-1.52336,-1.703509,-1.91209,-1.199564,-2.149104,-0.718969,-1.01049,-1.475251,-2.544363,-1.873718,-2.17356,-1.963139,-1.701619,-1.985855,-1.221207,-0.8658171,-3.378611,-1.860715,0.5529587,0.2579761,1.139101,0.8418736,0.4038099,0.93453,0.6143432,0.5005316,0.9462365,0.5081334,0.9368572,1.167098,0.6130868,0.6122902,0.7125626,1.045954,0.5829208,0.7748106,0.9411147,1.394734
29.08944,-1.986047,-1.657671,-1.595187,-1.767527,-1.987783,-1.285062,-2.277201,-0.7534038,-1.080946,-1.498493,-2.643593,-1.956907,-2.32568,-2.096082,-1.819125,-2.213845,-1.270252,-0.8939852,-3.542319,-1.936704,0.5425283,0.2688706,1.143911,0.8408188,0.4029388,0.93571,0.6094401,0.5015014,0.9416379,0.5088921,0.9342805,1.169645,0.6077216,0.5984429,0.7266249,1.04315,0.5838685,0.7781247,0.9308357,1.403377
29.21744,-2.066034,-1.704158,-1.694553,-1.857761,-2.104548,-1.398689,-2.417994,-0.778057,-1.132326,-1.553077,-2.761477,-2.05336,-2.471207,-2.240609,-1.924041,-2.481563,-1.323697,-0.9852484,-3.684862,-2.030497,0.5456475,0.2680337,1.143339,0.8401724,0.406689,0.9368829,0.6142552,0.5003878,0.9390208,0.5098426,0.9386978,1.171595,0.6068315,0.5964649,0.7167495,1.044092,0.5857258,0.7915791,0.9323718,1.405233
29.34544,-2.160385,-1.765592,-1.78298,-1.952421,-2.190311,-1.51443,-2.560253,-0.8224992,-1.269154,-1.616776,-2.892935,-2.164873,-2.611013,-2.372031,-2.025531,-2.704912,-1.374196,-1.034368,-3.845793,-2.122327,0.5442463,0.2667798,1.141206,0.8412927,0.4046778,0.9400154,0.6202906,0.501469,0.9687375,0.514874,0.9419082,1.175984,0.6014837,0.5845305,0.7272707,1.039236,0.5830334,0.7793768,0.9406548,1.412284
29.47344,-2.238076,-1.827861,-1.882332,-2.055479,-2.307149,-1.642631,-2.710802,-0.8937995,-1.307494,-1.687314,-3.012349,-2.30566,-2.779691,-2.514781,-2.177336,-2.963617,-1.440064,-1.097809,-3.895089,-2.176773,0.5202794,0.2670053,1.146255,0.8473065,0.4063267,0.9410756,0.6153424,0.5120547,0.9293436,0.5131401,0.9459182,1.184816,0.5990409,0.5776255,0.7395808,1.039105,0.5868904,0.7864379,0.9411668,1.405895
29.60144,-2.260891,-1.833352,-1.851183,-2.000879,-2.123079,-1.479257,-2.469649,-0.8387804,-1.20518,-1.619358,-2.794539,-2.102094,-2.378894,-2.10168,-1.890247,-2.17907,-1.314938,-0.929606,-3.445608,-1.912983,0.5303091,0.2701608,1.132372,0.8462002,0.4146905,0.9483055,0.6386256,0.5010803,0.9664893,0.5162748,0.9509269,1.193453,0.6121343,0.6134872,0.7535111,1.061023,0.5846291,0.771729,0.9369835,1.404941
29.72944,-1.991426,-1.695954,-1.604105,-1.793288,-1.909863,-1.240288,-2.158133,-0.7416425,-1.076983,-1.529456,-2.541096,-1.897179,-2.116696,-1.881538,-1.666998,-1.777552,-1.224906,-0.8679315,-3.313296,-1.769102,0.5265132,0.2653421,1.137652,0.83987,0.418277,0.9513808,0.6451449,0.5097587,0.9807508,0.5089556,0.9524862,1.196298,0.6154816,0.6249907,0.7424549,1.055549,0.5813802,0.7950958,0.9268863,1.397376
29.85744,-1.894876,-1.621455,-1.519121,-1.736496,-1.878263,-1.194204,-2.149015,-0.7132835,-1.05741,-1.512476,-2.538914,-1.908261,-2.130684,-1.929743,-1.693647,-1.904544,-1.240417,-0.8536009,-3.371439,-1.816954,0.5351449,0.2726492,1.141627,0.8433125,0.4212435,0.948199,0.6380773,0.4993937,0.9645509,0.5163801,0.9466751,1.19819,0.612637,0.6147365,0.7334393,1.049009,0.5837738,0.7874634,0.9288965,1.400125
29.98544,-1.938729,-1.599783,-1.539213,-1.758874,-1.911414,-1.228294,-2.238864,-0.7266971,-1.070414,-1.49911,-2.598518,-1.95141,-2.218283,-2.016002,-1.793202,-2.074018,-1.262159,-0.8923219,-3.488897,-1.866047,0.5513303,0.2796341,1.139053,0.8406295,0.4235112,0.9487019,0.6414118,0.4947946,0.9757119,0.509563,0.9437456,1.201783,0.6082435,0.6087866,0.741833,1.04709,0.5839594,0.7817616,0.9290169,1.39918
30.11344,-2.000024,-1.629725,-1.608243,-1.835529,-1.998322,-1.326929,-2.361024,-0.7527553,-1.145075,-1.540426,-2.702382,-2.043205,-2.351398,-2.164219,-1.868096,-2.322045,-1.305866,-0.9257522,-3.626778,-1.953601,0.5282226,0.2862319,1.138479,0.8410079,0.414101,0.9450761,0.6370655,0.50741,0.9795901,0.5097219,0.9490349,1.205385,0.6059611,0.6044474,0.741987,1.038903,0.5828562,0.7772337,0.9298095,1.406365
30.24144,-2.060964,-1.688336,-1.710061,-1.92482,-2.098181,-1.438751,-2.496428,-0.7820316,-1.239487,-1.603868,-2.81735,-2.136312,-2.50154,-2.309362,-1.98105,-2.573772,-1.358765,-0.9939693,-3.756285,-2.039938,0.531136,0.2812244,1.137574,0.839664,0.412492,0.9458001,0.6432394,0.5114841,0.981824,0.5229713,0.9489415,1.205538,0.6040873,0.601651,0.7300005,1.032502,0.5854589,0.7940672,0.9432445,1.406075
30.36943,-2.176718,-1.751471,-1.801703,-2.018881,-2.210585,-1.553145,-2.623003,-0.8365262,-1.331196,-1.640956,-2.941332,-2.260966,-2.639624,-2.425099,-2.077573,-2.823343,-1.416481,-1.053156,-3.879742,-2.157622,0.5366368,0.2771465,1.13825,0.8459583,0.4185814,0.943854,0.6409755,0.511319,0.9966235,0.5036905,0.9538591,1.209151,0.6041065,0.5803015,0.7261928,1.029137,0.5870918,0.775128,0.9528301,1.405752
30.49743,-2.315677,-1.833496,-1.902315,-2.110447,-2.338643,-1.699338,-2.778458,-0.8955904,-1.416468,-1.718912,-2.99899,-2.337545,-2.668486,-2.412424,-2.099601,-2.77984,-1.409112,-1.037984,-3.620281,-2.0965,0.5279913,0.2722749,1.140948,0.8401248,0.4204543,0.9430565,0.6470624,0.526492,1.001271,0.5189521,0.9638729,1.205231,0.6118932,0.5929688,0.72719,1.030446,0.5805619,0.780502,0.9612781,1.396192
30.62543,-2.13734,-1.755919,-1.728104,-1.93598,-2.013883,-1.380333,-2.344834,-0.7767164,-1.174018,-1.625634,-2.672367,-2.031848,-2.21858,-1.985201,-1.804141,-1.998195,-1.294752,-0.911451,-3.261032,-1.876756,0.5132598,0.2759627,1.13286,0.8478602,0.4240282,0.9443606,0.6640078,0.5219399,0.9925593,0.5258009,0.9637372,1.2071,0.6221235,0.6302627,0.7525345,1.037245,0.588306,0.7793193,0.9647937,1.381689
30.75343,-1.95051,-1.659289,-1.529302,-1.765845,-1.838603,-1.190403,-2.099123,-0.6769627,-1.028434,-1.528773,-2.514605,-1.897308,-2.047356,-1.885811,-1.746085,-1.868357,-1.241876,-0.8693886,-3.209596,-1.879433,0.5334532,0.2628799,1.128981,0.8426288,0.4203175,0.9456767,0.6638731,0.5217686,0.9673782,0.5232026,0.9635608,1.20719,0.623784,0.633323,0.7785266,1.023409,0.5860954,0.7803794,0.9637514,1.379295
30.88143,-1.940518,-1.631923,-1.520009,-1.749087,-1.879712,-1.214682,-2.16684,-0.6732917,-1.062372,-1.543774,-2.541523,-1.970119,-2.08637,-1.924185,-1.769675,-2.001023,-1.249647,-0.8555329,-3.236634,-1.928314,0.5291535,0.2629775,1.133745,0.8383484,0.4218967,0.9380103,0.6643986,0.5322169,1.00516,0.5389338,0.9593173,1.215008,0.6239938,0.6161474,0.7469173,1.00737,0.5837035,0.7700034,0.9614804,1.363451
31.00943,-1.958725,-1.636104,-1.553539,-1.802503,-1.940628,-1.274017,-2.260965,-0.6888636,-1.059815,-1.553064,-2.621884,-2.015821,-2.189422,-2.037387,-1.829906,-2.188431,-1.28731,-0.9012234,-3.379059,-1.993852,0.5362213,0.2674693,1.134101,0.8456971,0.4230613,0.9351553,0.6639973,0.5261494,0.9823833,0.535006,0.9589158,1.210076,0.6219292,0.6174862,0.7475358,1.003475,0.5864259,0.7700976,0.9621019,1.367952
31.13743,-2.012644,-1.67499,-1.641349,-1.876984,-2.017764,-1.373387,-2.370602,-0.6988074,-1.183088,-1.582183,-2.724794,-2.103122,-2.320554,-2.162024,-1.917635,-2.406689,-1.328008,-0.9776162,-3.547101,-2.058892,0.5283632,0.2652529,1.129656,0.8414961,0.4107642,0.9342867,0.6589277,0.5210642,1.015249,0.5256116,0.9610437,1.207008,0.6209915,0.6063442,0.736849,1.005773,0.5853645,0.7894256,0.9545459,1.370578
31.26543,-2.107895,-1.727242,-1.732961,-1.966167,-2.108895,-1.467858,-2.493758,-0.7581896,-1.2107,-1.638938,-2.846174,-2.207017,-2.445762,-2.279505,-1.999725,-2.623707,-1.377268,-1.010792,-3.713615,-2.123761,0.5227059,0.2656198,1.134052,0.84104,0.4176405,0.9322379,0.6608014,0.5366286,0.9889532,0.5436825,0.9637815,1.21018,0.6201581,0.6031492,0.7494212,1.007003,0.5866076,0.792565,0.9466997,1.370603
31.39343,-2.183667,-1.775757,-1.814792,-2.048397,-2.211317,-1.587371,-2.628361,-0.7995006,-1.260243,-1.689764,-2.970181,-2.325499,-2.608674,-2.410009,-2.141232,-2.852672,-1.433031,-1.07728,-3.812106,-2.218997,0.5393187,0.2626858,1.133921,0.8419923,0.4183552,0.9333953,0.6614362,0.5412656,0.9645527,0.5383083,0.9612043,1.213875,0.6159382,0.585048,0.7492993,1.002536,0.5834328,0.791482,0.9441206,1.37627
31.52143,-2.262674,-1.809093,-1.817218,-2.037088,-2.084419,-1.466117,-2.454585,-0.7745245,-1.142084,-1.650989,-2.775715,-2.161147,-2.281423,-2.0624,-1.847044,-2.167773,-1.330344,-0.9426976,-3.37394,-1.963414,0.531469,0.2657765,1.120959,0.8461411,0.4199824,0.9372895,0.6721777,0.5350929,0.9641287,0.5383078,0.9652615,1.210578,0.6276625,0.6183751,0.7448502,1.023222,0.5851483,0.7857271,0.9479241,1.370603
31.64943,-2.019376,-1.68802,-1.57355,-1.842132,-1.869715,-1.222831,-2.136367,-0.657343,-1.014975,-1.533905,-2.529146,-1.933291,-2.056015,-1.840326,-1.669984,-1.76848,-1.240103,-0.8324592,-3.264913,-1.804588,0.5468808,0.253458,1.124152,0.8446703,0.4285631,0.9429094,0.6768783,0.5474774,0.9868641,0.5296156,0.964319,1.215072,0.6209362,0.6273364,0.7535022,1.042524,0.5862653,0.7735023,0.9353989,1.382338
31.77743,-1.927134,-1.631841,-1.499723,-1.7771,-1.834699,-1.173796,-2.11817,-0.6258472,-1.019154,-1.511077,-2.515937,-1.930437,-2.079913,-1.882358,-1.669584,-1.846356,-1.242241,-0.8518258,-3.31146,-1.816559,0.5554612,0.2560028,1.134251,0.8400047,0.4197182,0.9378117,0.6714161,0.5457545,0.9864022,0.5313242,0.9533389,1.214165,0.6176813,0.6218659,0.7331411,1.029194,0.5820262,0.77885,0.9318175,1.372378
31.90542,-1.90731,-1.631575,-1.524016,-1.794156,-1.87264,-1.197948,-2.176495,-0.6256757,-1.019423,-1.521971,-2.562131,-1.959011,-2.154463,-1.960551,-1.715098,-1.996784,-1.26974,-0.8717525,-3.40419,-1.867918,0.5302601,0.2559465,1.135461,0.8389009,0.4180474,0.936639,0.6725014,0.5359751,0.9880037,0.533349,0.9563715,1.217706,0.6146765,0.6149649,0.7238252,1.024769,0.5843877,0.7700744,0.9373358,1.379487
32.03342,-2.005166,-1.665802,-1.583127,-1.856995,-1.959396,-1.277735,-2.283086,-0.6409361,-1.073306,-1.536886,-2.666069,-2.041298,-2.302917,-2.076152,-1.821552,-2.178484,-1.311996,-0.947811,-3.557879,-1.924696,0.5490774,0.2536297,1.132051,0.837742,0.4188169,0.93744,0.6615462,0.538246,0.9781691,0.5288097,0.9525872,1.220003,0.6053221,0.6001614,0.7374184,1.024735,0.5857832,0.7891966,0.9309636,1.389091
32.16142,-2.044012,-1.722536,-1.669069,-1.937616,-2.04285,-1.374053,-2.41208,-0.7020807,-1.140283,-1.568638,-2.778515,-2.11581,-2.455035,-2.196421,-1.896881,-2.38903,-1.356172,-0.983172,-3.709768,-1.994916,0.524345,0.2537525,1.130545,0.8379471,0.4140355,0.9371378,0.6657957,0.5393203,0.9944206,0.5147361,0.9485326,1.215289,0.5994478,0.590488,0.7167552,1.028063,0.5826046,0.7790436,0.9273688,1.390887
32.28942,-2.130352,-1.762346,-1.748791,-2.018945,-2.137765,-1.4764,-2.537129,-0.7380635,-1.244361,-1.648242,-2.907382,-2.216621,-2.595661,-2.334618,-2.025539,-2.622128,-1.410537,-1.035376,-3.847981,-2.085476,0.5293076,0.2514015,1.13723,0.842394,0.4173472,0.9404943,0.6661293,0.5225254,0.987672,0.5366412,0.951032,1.215345,0.5943152,0.5874884,0.7308029,1.031061,0.5842826,0.7709616,0.9320068,1.399104
32.41742,-2.23952,-1.838581,-1.835403,-2.110851,-2.215533,-1.566002,-2.645198,-0.8027883,-1.300864,-1.669046,-2.893435,-2.212051,-2.537567,-2.205521,-1.970235,-2.339467,-1.371489,-0.9785263,-3.532948,-1.949427,0.5433667,0.2520576,1.135824,0.8431343,0.412972,0.9397048,0.6633173,0.5349566,1.002625,0.5113935,0.9523731,1.211419,0.6009998,0.6023605,0.7328128,1.040058,0.5795462,0.7699351,0.9327236,1.390266
32.54542,-2.069727,-1.732649,-1.617409,-1.901375,-1.899934,-1.246035,-2.185008,-0.6921864,-1.098137,-1.579376,-2.576521,-1.930267,-2.162176,-1.857167,-1.692871,-1.721869,-1.252962,-0.855634,-3.234954,-1.757007,0.5490558,0.2543421,1.132973,0.8481,0.4166369,0.9466594,0.6765018,0.5473871,1.019977,0.5340869,0.9613533,1.215823,0.6053555,0.6258534,0.7450644,1.038554,0.5815914,0.7767509,0.9388481,1.381082
32.67342,-1.858789,-1.647548,-1.432906,-1.738896,-1.773322,-1.081378,-2.00814,-0.6101839,-0.9808323,-1.494638,-2.461511,-1.849797,-2.067684,-1.816908,-1.635223,-1.722744,-1.221647,-0.8494681,-3.255071,-1.746345,0.5458177,0.2460781,1.127727,0.8442907,0.4195468,0.93869,0.6716413,0.5447717,1.000743,0.5273758,0.9535066,1.212826,0.6078407,0.6178294,0.7261809,1.033376,0.5784405,0.7813359,0.9241387,1.378939
32.80142,-1.876829,-1.625724,-1.433909,-1.744855,-1.816907,-1.110104,-2.080866,-0.5991506,-1.00742,-1.497213,-2.507566,-1.872578,-2.12453,-1.861664,-1.666852,-1.838376,-1.236107,-0.8486704,-3.328151,-1.790926,0.5397987,0.2437648,1.130521,0.8412223,0.4164233,0.9356249,0.6619924,0.5330313,0.9928729,0.5251396,0.9520688,1.205963,0.602149,0.6075228,0.7169943,1.027136,0.5777081,0.7687808,0.9257695,1.379814
32.92942,-1.894642,-1.635777,-1.481895,-1.78651,-1.877863,-1.178714,-2.198076,-0.6447731,-1.012518,-1.510615,-2.591558,-1.940073,-2.236263,-1.978649,-1.732585,-2.035751,-1.271809,-0.8931077,-3.463456,-1.873957,0.5333577,0.2522844,1.137155,0.8436171,0.410836,0.9391929,0.6570045,0.5249839,0.9676235,0.5206126,0.9402322,1.201845,0.5992808,0.5985907,0.7014028,1.011892,0.5783416,0.777589,0.9228565,1.390695
33.05742,-1.966341,-1.679789,-1.565135,-1.868302,-1.97309,-1.289463,-2.325,-0.6840687,-1.086404,-1.551934,-2.707626,-2.039041,-2.378362,-2.105367,-1.884061,-2.256719,-1.315447,-0.9427484,-3.587161,-1.940366,0.5278162,0.2541495,1.139071,0.8436627,0.4053359,0.9402264,0.6562887,0.5307242,0.9656036,0.5223487,0.9456459,1.210216,0.5950083,0.5929523,0.7307749,1.011629,0.5775771,0.7725512,0.9271267,1.390052
33.18542,-2.081638,-1.741899,-1.663991,-1.954062,-2.074491,-1.387596,-2.440366,-0.7266027,-1.186412,-1.602802,-2.818011,-2.109278,-2.525315,-2.222344,-1.960216,-2.453644,-1.365653,-1.006759,-3.709723,-2.024324,0.5390393,0.2504423,1.139276,0.8440163,0.4026282,0.9405754,0.6506613,0.5148982,0.9840915,0.520002,0.941671,1.20341,0.5878579,0.5809112,0.7161784,1.016058,0.5768914,0.7654773,0.9320181,1.388671
33.31342,-2.199867,-1.799256,-1.737909,-2.033862,-2.175284,-1.504117,-2.576171,-0.7749778,-1.265722,-1.660262,-2.952384,-2.221205,-2.69093,-2.360767,-2.07416,-2.709741,-1.416967,-1.061638,-3.796054,-2.108567,0.5430713,0.2495957,1.136566,0.8458984,0.3993364,0.9386258,0.6490507,0.5162444,0.9663892,0.5175797,0.9467611,1.197779,0.5868245,0.5708551,0.7156514,1.008026,0.5745167,0.7575114,0.9338422,1.389051
33.44141,-2.162158,-1.828994,-1.743324,-1.997326,-2.026739,-1.362727,-2.360615,-0.765809,-1.155143,-1.628836,-2.740116,-2.033459,-2.318095,-1.971573,-1.777513,-1.949791,-1.291532,-0.93134,-3.335958,-1.8215,0.5077487,0.2494635,1.130029,0.8460913,0.4003651,0.9449084,0.6561059,0.5294689,0.983963,0.5184518,0.9472362,1.196581,0.6046944,0.6061206,0.7318533,1.018543,0.5729281,0.778469,0.9292103,1.378268
33.56941,-1.905064,-1.681593,-1.454681,-1.762348,-1.780117,-1.082993,-1.992313,-0.6436099,-0.9824019,-1.497209,-2.429528,-1.790981,-2.027796,-1.717945,-1.583744,-1.557568,-1.170935,-0.7800074,-3.148198,-1.657017,0.5160912,0.2497536,1.133954,0.8443365,0.4068941,0.9416383,0.6544387,0.5274723,0.9889194,0.5192046,0.9453062,1.200466,0.6010923,0.6160023,0.7370557,1.031267,0.5720164,0.7537442,0.916878,1.384559
33.69741,-1.783611,-1.591116,-1.324661,-1.652494,-1.734913,-1.010418,-1.967582,-0.5940655,-0.9112989,-1.452026,-2.397732,-1.764537,-2.021789,-1.748214,-1.561084,-1.649222,-1.168288,-0.7830445,-3.186022,-1.692,0.5387428,0.2487494,1.140535,0.8415205,0.4063079,0.9456072,0.6512403,0.5100337,0.9585705,0.5242445,0.9360275,1.180027,0.5985267,0.6052085,0.709556,1.018914,0.5745472,0.7556115,0.9210023,1.382098
33.82541,-1.812631,-1.586882,-1.343117,-1.669721,-1.772271,-1.045331,-2.032802,-0.6090434,-0.9333,-1.417938,-2.445944,-1.80087,-2.117304,-1.819596,-1.619781,-1.811384,-1.190504,-0.8220291,-3.296884,-1.743717,0.5484378,0.2574434,1.137064,0.8425059,0.3985865,0.9432098,0.6394368,0.4929991,0.955017,0.4971217,0.9322591,1.181794,0.5915453,0.5911152,0.7054606,1.016124,0.5740764,0.7655513,0.9141837,1.378361
33.95341,-1.842916,-1.598525,-1.410654,-1.726896,-1.866471,-1.14241,-2.162664,-0.668538,-0.9785333,-1.461755,-2.548825,-1.882209,-2.225139,-1.945898,-1.700195,-2.045395,-1.230063,-0.8777055,-3.434512,-1.822954,0.5386636,0.2600906,1.139586,0.8435248,0.4024952,0.9429765,0.6298205,0.5094633,0.9450659,0.5060478,0.9322881,1.174123,0.5944043,0.5789372,0.6837783,0.9986022,0.5705374,0.7721179,0.9131911,1.380136
34.08141,-1.951179,-1.651213,-1.504364,-1.810372,-1.965108,-1.252123,-2.288058,-0.7049998,-1.073565,-1.508547,-2.662566,-1.972949,-2.354765,-2.077416,-1.790491,-2.268215,-1.276131,-0.9223864,-3.567415,-1.928739,0.550252,0.2606532,1.135375,0.8415036,0.3968216,0.9395667,0.6258548,0.4971316,0.9575064,0.5076784,0.9276704,1.166443,0.5932919,0.5715411,0.6891957,0.9895332,0.5725498,0.7629256,0.9140062,1.389077
34.20941,-2.073374,-1.703639,-1.594442,-1.90089,-2.058363,-1.364339,-2.413764,-0.7574107,-1.139036,-1.55608,-2.790971,-2.075155,-2.489612,-2.200296,-1.909696,-2.493638,-1.327965,-0.9986206,-3.709492,-2.006338,0.5679482,0.26172,1.134121,0.8432104,0.3935628,0.9371835,0.6212834,0.4912927,0.9570143,0.5066969,0.9285037,1.171864,0.5889495,0.5618285,0.692975,0.9930746,0.5725985,0.772244,0.9193234,1.38192
34.33741,-2.121086,-1.76348,-1.69186,-1.999822,-2.177851,-1.483418,-2.558817,-0.8150877,-1.222278,-1.605434,-2.911408,-2.183177,-2.637418,-2.309172,-1.975353,-2.66923,-1.358478,-1.013446,-3.632173,-1.993775,0.5383341,0.2631932,1.136155,0.8399127,0.3990843,0.9366502,0.6129713,0.4941815,0.9302732,0.4941697,0.9346541,1.165605,0.5865042,0.558014,0.671088,0.9932172,0.5692127,0.7553843,0.9191288,1.38399
34.46541,-2.07355,-1.723229,-1.581313,-1.875142,-1.921807,-1.251544,-2.20948,-0.7489862,-1.094519,-1.535077,-2.593068,-1.909814,-2.19327,-1.844098,-1.651778,-1.805959,-1.208508,-0.8561201,-3.219788,-1.738426,0.5452802,0.267301,1.12392,0.8431848,0.4035937,0.9458738,0.6293018,0.4985858,0.9812478,0.5012051,0.9331924,1.166357,0.5992472,0.594244,0.6989267,1.01167,0.5675766,0.7593098,0.9212747,1.37655
34.59341,-1.799169,-1.61904,-1.346827,-1.661319,-1.705607,-1.007058,-1.908324,-0.6294844,-0.867374,-1.395289,-2.325563,-1.702251,-1.959519,-1.66471,-1.482576,-1.545679,-1.121128,-0.7845993,-3.125735,-1.653439,0.5259439,0.2567898,1.121719,0.8367372,0.3958801,0.9407657,0.6255702,0.4997199,0.942588,0.4824947,0.9327865,1.164294,0.5990968,0.5961777,0.7030151,1.011458,0.569122,0.7697653,0.9066399,1.383499
34.72141,-1.785824,-1.580563,-1.289355,-1.604706,-1.723373,-0.9866928,-1.937249,-0.5946342,-0.8959519,-1.391872,-2.33637,-1.707912,-2.009394,-1.724178,-1.507083,-1.674027,-1.120407,-0.791205,-3.151666,-1.676839,0.5572222,0.2529852,1.123709,0.8350654,0.3919646,0.9344895,0.6140199,0.4964077,0.9331685,0.496922,0.9252707,1.15478,0.5932853,0.5858166,0.6759439,1.005875,0.5656468,0.7596295,0.9129143,1.373805
34.8494,-1.726643,-1.584414,-1.329935,-1.620964,-1.780779,-1.038432,-2.010316,-0.6248279,-0.9335555,-1.382353,-2.39049,-1.745405,-2.095901,-1.823794,-1.562653,-1.865589,-1.146916,-0.8453599,-3.28116,-1.760774,0.5010673,0.2546773,1.128167,0.8323461,0.3893419,0.9325855,0.6060925,0.4909936,0.9349327,0.49156,0.9194107,1.145329,0.5908501,0.5771334,0.674493,0.9908656,0.5639431,0.7755917,0.9046224,1.377752
34.97741,-1.876642,-1.615609,-1.399732,-1.691522,-1.870658,-1.141328,-2.13229,-0.667631,-0.9795592,-1.404006,-2.498364,-1.8394,-2.225079,-1.960861,-1.667192,-2.084094,-1.192793,-0.8814508,-3.440144,-1.838593,0.5532479,0.2548784,1.123894,0.8312458,0.3823686,0.9337377,0.59389,0.5005371,0.920113,0.4827109,0.9177078,1.143172,0.5890359,0.5678647,0.6806074,0.9806519,0.565616,0.7635037,0.9066542,1.38276
35.1054,-1.961792,-1.665111,-1.499865,-1.784697,-1.95706,-1.249086,-2.277246,-0.6880152,-1.040379,-1.452122,-2.624249,-1.941339,-2.359787,-2.084079,-1.747502,-2.309841,-1.244501,-0.9226717,-3.579939,-1.931979,0.537495,0.2567494,1.126596,0.8353672,0.380449,0.9313794,0.6005585,0.4764483,0.9129054,0.4835932,0.9171339,1.14703,0.5874894,0.5544832,0.6731035,0.9804764,0.5663388,0.7557306,0.9072978,1.383674
35.2334,-2.00591,-1.717259,-1.583738,-1.869273,-2.056159,-1.361195,-2.388593,-0.7366313,-1.109192,-1.499995,-2.746107,-2.030624,-2.495619,-2.205444,-1.839303,-2.528752,-1.294386,-1.033568,-3.721548,-2.023276,0.5092105,0.2560035,1.118932,0.8335887,0.3785031,0.9298036,0.5886784,0.4835584,0.9170851,0.4865946,0.9175899,1.140725,0.5842071,0.5420176,0.6587505,0.9717227,0.5630944,0.7735125,0.9104716,1.386743
35.3614,-2.140177,-1.798842,-1.700893,-1.97365,-2.163241,-1.48247,-2.516165,-0.7848021,-1.151006,-1.562507,-2.765299,-2.070158,-2.477643,-2.133944,-1.808514,-2.355073,-1.270633,-0.9620705,-3.444778,-1.914234,0.5403911,0.2509958,1.124791,0.8330227,0.3745672,0.9250301,0.5892795,0.4904479,0.8953342,0.497319,0.9207808,1.137408,0.5889515,0.5526813,0.672202,0.983136,0.5616896,0.7611203,0.9155496,1.374646
35.4894,-1.973964,-1.712762,-1.502189,-1.780141,-1.863826,-1.17332,-2.058881,-0.6589434,-0.9592189,-1.43719,-2.439764,-1.767408,-2.078058,-1.765185,-1.51559,-1.688951,-1.141312,-0.8634722,-3.143056,-1.722741,0.5187871,0.2502778,1.114341,0.8346966,0.3856542,0.9301498,0.6006549,0.4903466,0.9355875,0.4951616,0.9255375,1.142288,0.5951793,0.5802585,0.6797521,0.9916659,0.5613213,0.7632773,0.9128759,1.376111
35.6174,-1.78008,-1.63155,-1.320074,-1.614788,-1.71518,-0.9932625,-1.87615,-0.5780247,-0.8495882,-1.36149,-2.326326,-1.672058,-1.971079,-1.713615,-1.455722,-1.642998,-1.10723,-0.8079378,-3.162187,-1.704105,0.542308,0.2417752,1.112132,0.8312792,0.3775011,0.9289701,0.603969,0.4858348,0.9086637,0.4891385,0.9171355,1.13469,0.5948282,0.5707268,0.691877,0.9890003,0.5585597,0.7603099,0.9035991,1.37505
35.7454,-1.784337,-1.610708,-1.332173,-1.608528,-1.762345,-1.033693,-1.949884,-0.6095078,-0.8762172,-1.351133,-2.356781,-1.694356,-2.019764,-1.764862,-1.467926,-1.748499,-1.115176,-0.8215193,-3.204113,-1.747649,0.5338479,0.2447265,1.115056,0.8258639,0.373432,0.9237985,0.5887738,0.4942208,0.8880548,0.4927995,0.9184129,1.124898,0.5943633,0.5650296,0.6713929,0.9769281,0.5600091,0.7535425,0.9050845,1.370955
35.8734,-1.803043,-1.620072,-1.368412,-1.663162,-1.841199,-1.09567,-2.043195,-0.6167267,-0.927146,-1.3578,-2.438073,-1.767903,-2.129806,-1.874583,-1.564903,-1.952106,-1.152392,-0.8982456,-3.357128,-1.815585,0.521912,0.2434772,1.109949,0.8285325,0.3695385,0.9184852,0.5777344,0.4789904,0.9123612,0.4864426,0.9116294,1.127416,0.5864625,0.5576618,0.6624233,0.9765393,0.5593994,0.7733417,0.9062743,1.38113
36.0014,-1.902593,-1.662704,-1.465234,-1.744578,-1.926782,-1.194241,-2.171235,-0.6612268,-0.9493918,-1.403407,-2.5433,-1.840185,-2.295625,-2.003728,-1.646631,-2.153719,-1.199182,-0.9420664,-3.489909,-1.901591,0.5302408,0.2453291,1.114359,0.8260276,0.3680416,0.9177591,0.5768093,0.490598,0.8720133,0.4926188,0.910722,1.13343,0.5776746,0.5462269,0.6599842,0.9881146,0.5591186,0.7664464,0.9134181,1.389802
36.12939,-1.971727,-1.722154,-1.559572,-1.8253,-2.034983,-1.305323,-2.30992,-0.6842967,-1.059725,-1.449853,-2.676426,-1.931989,-2.424123,-2.130316,-1.743626,-2.388904,-1.261262,-0.9918772,-3.63827,-1.983439,0.5236648,0.2438432,1.109909,0.8238624,0.3684422,0.9185053,0.5783651,0.47346,0.8960739,0.491062,0.9131595,1.118915,0.5768443,0.5367336,0.6496873,0.9764162,0.5622925,0.7630448,0.9081867,1.383293
36.2574,-2.041805,-1.780068,-1.658299,-1.928446,-2.13685,-1.432081,-2.436968,-0.7639508,-1.151785,-1.504586,-2.806128,-2.077782,-2.593274,-2.281347,-1.88962,-2.636335,-1.31605,-1.030015,-3.774349,-2.0955,0.5026705,0.246078,1.116044,0.8305202,0.3666092,0.9180655,0.5697893,0.4760451,0.891443,0.4809065,0.9134933,1.135889,0.570501,0.5315139,0.6569414,0.9794505,0.5584353,0.7537851,0.9169854,1.394924
36.3854,-2.157711,-1.832651,-1.706494,-1.950745,-2.055049,-1.366591,-2.315376,-0.7669966,-1.049058,-1.504012,-2.657634,-1.933534,-2.292294,-1.954114,-1.656513,-2.013574,-1.221736,-0.9401177,-3.328253,-1.85033,0.5063263,0.247809,1.098634,0.8323013,0.3730761,0.9223543,0.5754266,0.4919444,0.8971844,0.4815488,0.9156179,1.127031,0.5852666,0.5613782,0.661387,0.9880987,0.5593905,0.7569425,0.9146097,1.377218
36.51339,-1.92525,-1.690848,-1.441089,-1.723275,-1.805767,-1.097207,-1.956701,-0.6376663,-0.9201571,-1.378086,-2.39234,-1.702795,-2.00593,-1.683927,-1.446636,-1.57126,-1.118701,-0.8484595,-3.138799,-1.702056,0.5426838,0.2462907,1.104976,0.828737,0.3786178,0.9216831,0.5892766,0.4812692,0.9254146,0.4794695,0.9197044,1.130654,0.5871847,0.5684956,0.6722742,0.9918268,0.5588089,0.760429,0.9124489,1.38085
36.64139,-1.767227,-1.619783,-1.320005,-1.625613,-1.762109,-1.029909,-1.910637,-0.6207471,-0.8695846,-1.316592,-2.368436,-1.690528,-1.998723,-1.725353,-1.452544,-1.664044,-1.122695,-0.8473265,-3.209816,-1.742767,0.5345275,0.2452075,1.10418,0.8275409,0.3764639,0.919244,0.582728,0.493819,0.9080309,0.4701349,0.9117336,1.124261,0.5865222,0.5619151,0.6623219,0.9833068,0.5603296,0.7768561,0.903853,1.384468
36.76939,-1.808037,-1.61025,-1.357564,-1.66116,-1.809408,-1.064885,-1.986299,-0.6199085,-0.8920926,-1.339733,-2.41766,-1.733022,-2.084028,-1.814897,-1.539522,-1.809003,-1.142016,-0.9087934,-3.320525,-1.784295,0.5397746,0.2459934,1.111756,0.8246931,0.3812229,0.9185789,0.5797495,0.4786483,0.8872872,0.4794501,0.9048144,1.122557,0.5784694,0.5592418,0.6751519,0.9849787,0.5580498,0.7789935,0.9102874,1.386192
36.89739,-1.830533,-1.63357,-1.422955,-1.726316,-1.888628,-1.14972,-2.107794,-0.6405625,-0.9496387,-1.346554,-2.527269,-1.802183,-2.237066,-1.949555,-1.583553,-2.023061,-1.189977,-0.9126599,-3.468873,-1.871923,0.5276232,0.251769,1.109889,0.8260266,0.372308,0.9178477,0.5712315,0.4691664,0.8703669,0.469114,0.9055399,1.122005,0.5756322,0.5527707,0.6275017,0.9804854,0.5585412,0.7619528,0.9051899,1.391013
37.02539,-1.930854,-1.681193,-1.517635,-1.821188,-1.984452,-1.265932,-2.249474,-0.6972662,-0.9995969,-1.415952,-2.660011,-1.914931,-2.374045,-2.076231,-1.725469,-2.273002,-1.247112,-0.9803832,-3.627456,-1.96776,0.5271357,0.2548589,1.109157,0.8254297,0.3741145,0.9143344,0.5753227,0.4735164,0.853303,0.4774102,0.9076145,1.12182,0.5700713,0.5393261,0.6538319,0.9741808,0.5584193,0.7734925,0.9041914,1.394603
37.15339,-2.069739,-1.733447,-1.612454,-1.917464,-2.09475,-1.381003,-2.380666,-0.7724411,-1.137161,-1.474219,-2.793671,-2.030756,-2.515848,-2.202663,-1.795957,-2.499822,-1.3052,-1.049877,-3.767404,-2.059378,0.5411674,0.2553732,1.111541,0.8270478,0.3799677,0.9159176,0.569927,0.4783536,0.9057981,0.4727482,0.9064496,1.125982,0.5687194,0.5291378,0.6288331,0.9724216,0.5612915,0.7782173,0.9091931,1.401208
37.28139,-2.133841,-1.799366,-1.713862,-2.018668,-2.218353,-1.517684,-2.53431,-0.8174415,-1.163139,-1.535004,-2.920655,-2.150544,-2.656286,-2.318006,-1.911267,-2.692935,-1.351164,-1.056283,-3.689225,-2.06442,0.5224994,0.257585,1.11224,0.827058,0.3809215,0.9170032,0.5685721,0.4729198,0.8419814,0.475964,0.9135622,1.133199,0.5666252,0.5230728,0.6368719,0.9726267,0.558217,0.7598813,0.9110937,1.391131
37.40939,-2.060326,-1.753163,-1.614215,-1.914061,-1.961824,-1.295941,-2.206179,-0.7778687,-0.9731815,-1.479175,-2.629174,-1.891603,-2.209451,-1.854998,-1.603234,-1.815077,-1.215263,-0.9195321,-3.280406,-1.8116,0.5229294,0.2657357,1.0985,0.8340288,0.3887033,0.9247302,0.5874786,0.4819527,0.8495964,0.4740269,0.9138348,1.131661,0.5792468,0.5722769,0.6742644,0.9951273,0.5595353,0.7640368,0.9085499,1.386336
37.53739,-1.842908,-1.635713,-1.385032,-1.713503,-1.757974,-1.063043,-1.921811,-0.6531403,-0.8645082,-1.365844,-2.397912,-1.707124,-1.980458,-1.677318,-1.432606,-1.531002,-1.135063,-0.8269746,-3.199648,-1.709183,0.5285885,0.2649943,1.10321,0.8318776,0.3986261,0.9213251,0.5914443,0.4735529,0.8893646,0.4768199,0.9117863,1.132494,0.581364,0.579494,0.6786783,1.001384,0.5617176,0.7647904,0.9025143,1.393808
37.66539,-1.757093,-1.571855,-1.324193,-1.664866,-1.754295,-1.04982,-1.953197,-0.6348339,-0.8539175,-1.348221,-2.422689,-1.716971,-2.030001,-1.736613,-1.486267,-1.687843,-1.158638,-0.8143692,-3.266475,-1.755362,0.5251902,0.2695386,1.108208,0.8227915,0.3976624,0.9214977,0.581167,0.4649509,0.8678262,0.4716608,0.8994182,1.116354,0.5777238,0.5638719,0.6680741,0.9829563,0.5630438,0.7536252,0.900006,1.383104
37.79338,-1.751401,-1.556704,-1.361635,-1.710502,-1.807648,-1.108013,-2.058875,-0.6714074,-0.9585631,-1.362047,-2.514151,-1.787225,-2.135113,-1.850015,-1.562815,-1.886214,-1.190143,-0.9087906,-3.400268,-1.833951,0.5070404,0.2788185,1.106842,0.8261763,0.3933869,0.9186847,0.579019,0.4648656,0.9226484,0.4683279,0.901373,1.119995,0.5711678,0.5584784,0.6524885,0.9772034,0.5609718,0.7802192,0.9002276,1.391595
