t_sec,abp_mmHg,resp_arbunit,spo2_unitless,scon_muS
0,103.0055,0.839597,0.9799718,2.181905
0.04799257,101.8612,0.8496445,0.9898543,2.181905
0.09962589,98.04675,0.877277,0.9898543,2.181905
0.1483752,95.75809,0.9049096,0.9898543,2.188364
0.1981225,94.2323,0.9074214,0.9898543,2.181905
0.2490114,90.79928,0.9049096,0.9896896,2.181905
0.2989915,91.43503,0.9023977,0.9896896,2.181905
0.3500639,131.4868,0.9124461,0.9898543,2.181905
0.3987468,139.3701,0.9124461,0.9898543,2.181905
0.4484966,135.047,0.9074214,0.9898543,2.181905
0.4996212,135.047,0.8948621,0.9900191,2.181905
0.5483721,135.4285,0.8848136,0.9900191,2.181905
0.5990971,125.7652,0.8747652,0.9898543,2.181905
0.6482419,123.3493,0.877277,0.9898543,2.181905
0.6989886,124.4937,0.8823017,0.9896896,2.175446
0.7499361,119.2806,0.8823017,0.9898543,2.181905
0.7980371,117.119,0.8722533,0.9898543,2.175446
0.8495816,112.6688,0.8571811,0.9896896,2.175446
0.8979968,109.363,0.8471326,0.9898543,2.175446
0.9480082,107.3286,0.8446208,0.9900191,2.175446
0.9992467,104.1499,0.8370851,0.9898543,2.175446
1.048503,100.3354,0.8144764,0.9896896,2.175446
1.099785,98.55534,0.7918685,0.9898543,2.175446
1.148534,96.90242,0.7994041,0.9898543,2.175446
1.198534,95.37663,0.7717717,0.9898543,2.175446
1.249784,92.19792,0.7139947,0.9898543,2.168987
1.298538,95.63092,0.6210496,0.9896896,2.175446
1.349778,132.2497,0.5682974,0.9898543,2.175446
1.398559,139.1158,0.5456887,0.9898543,2.175446
1.44827,134.7927,0.4853999,0.9898543,2.175446
1.499532,135.8099,0.4351595,0.9896896,2.168987
1.548018,137.0814,0.3597976,0.9898543,2.168987
1.598995,129.1982,0.3271413,0.9898543,2.168987
1.648236,125.7652,0.3196057,0.9898543,2.168987
1.699003,125.2566,0.314581,0.9898543,2.168987
1.749042,119.4077,0.3095573,0.9898543,2.168987
1.79826,116.6105,0.2869494,0.9898543,2.168987
1.849241,111.906,0.2316844,0.9898543,2.168987
1.898854,109.6173,0.2065638,0.9898543,2.168987
1.948611,106.0571,0.1940034,0.9896896,2.168987
2.000097,104.5313,0.1864678,0.9898543,2.162528
2.048484,103.0055,0.1538115,0.9896896,2.168987
2.099489,98.55534,0.1111068,0.9896896,2.168987
2.149237,96.90242,0.1161306,0.9898543,2.168987
2.199238,93.85085,0.1186424,0.9898543,2.162528
2.249238,93.08795,0.07844961,0.9896896,2.168987
2.298998,88.38345,0.01313706,0.9898543,2.162528
2.350234,126.0195,-0.04463986,0.9898543,2.162528
2.399017,142.9302,-0.05971205,0.9896896,2.162528
2.448862,140.5144,-0.117489,0.9898543,2.162528
2.499994,138.6072,-0.2003856,0.9896896,2.168987
2.548734,141.7859,-0.2631872,0.9898543,2.168987
2.599778,137.7171,-0.3008672,0.9898543,2.162528
2.648246,128.0538,-0.3209632,0.9898543,2.162528
2.698087,127.2909,-0.3284997,0.9896896,2.162528
2.74936,124.1122,-0.3310116,0.9896896,2.168987
2.798109,123.7308,-0.3485957,0.9896896,2.162528
2.849231,117.3734,-0.3812529,0.9898543,2.168987
2.89873,112.2874,-0.4113973,0.9898543,2.162528
2.948607,109.2358,-0.436517,0.9898543,2.168987
3.000107,105.6757,-0.4465654,0.9898543,2.168987
3.048804,101.9884,-0.474198,0.9799718,2.168987
3.09985,98.80965,-0.5018305,0.9799718,2.175446
3.148649,97.66531,-0.5219264,0.9799718,2.168987
3.198651,94.74089,-0.5043424,0.9798071,2.175446
3.249647,92.7065,-0.5269502,0.9799718,2.175446
3.298987,91.18073,-0.5822152,0.9798071,2.175446
3.350019,91.94361,-0.6676247,0.9799718,2.175446
3.398728,133.0126,-0.7279134,0.9798071,2.175446
3.448603,139.8786,-0.7404737,0.9798071,2.168987
3.499312,138.9886,-0.8032745,0.9798071,2.175446
3.549115,139.7515,-0.8309069,0.9799718,2.175446
3.599682,140.2601,-0.8233704,0.9798071,2.175446
3.648207,128.9439,-0.7856904,0.9796425,2.175446
3.699018,126.528,-0.7128413,0.9798071,2.168987
3.750232,127.1638,-0.6198962,0.9798071,2.175446
3.798847,122.4593,-0.5369986,0.9798071,2.175446
3.849855,114.7032,-0.4490773,0.9798071,2.175446
3.899207,112.6688,-0.3485957,0.9798071,2.175446
3.948995,109.6173,-0.2430903,0.9798071,2.168987
3.999309,106.0571,-0.09488021,0.9798071,2.175446
4.048122,103.6413,0.005601424,0.9799718,2.168987
4.100207,100.7169,0.05081802,0.9798071,2.168987
4.148855,95.75809,0.08849805,0.9798071,2.168987
4.198848,96.26666,0.1437631,0.9798071,2.175446
4.250114,93.34225,0.1965153,0.9798071,2.168987
4.298724,91.56216,0.2291725,0.9798071,2.175446
4.349723,89.2735,0.2718772,0.9798071,2.175446
4.398198,124.2394,0.3020216,0.9798071,2.175446
4.448203,137.7171,0.3572857,0.9799718,2.175446
4.499344,137.0814,0.3874301,0.9798071,2.175446
4.548474,136.8271,0.427623,0.9799718,2.175446
4.599721,139.3701,0.5406649,0.9798071,2.175446
4.649231,130.0882,0.6110012,0.9798071,2.175446
4.699143,124.3665,0.6662663,0.9798071,2.175446
4.749233,125.7652,0.7315797,0.9798071,2.181905
4.798235,126.0195,0.7943804,0.9798071,2.181905
4.849473,118.772,0.8345723,0.9798071,2.175446
4.899324,114.7032,0.8622048,0.9798071,2.181905
4.948974,111.5245,0.8797898,0.9798071,2.181905
4.999302,110.7616,0.8923492,0.9799718,2.188364
5.049321,106.82,0.8973739,0.9798071,2.188364
5.099604,104.9128,0.8898373,0.9799718,2.188364
5.148916,99.95398,0.8722533,0.9799718,2.188364
5.198843,97.66531,0.8647167,0.9799718,2.188364
5.249352,96.64812,0.8521573,0.9799718,2.188364
5.298776,93.72369,0.8144764,0.9798071,2.194824
5.350131,93.46941,0.7340916,0.9798071,2.194824
5.398762,119.5349,0.6838503,0.9799718,2.194824
5.44848,140.8958,0.6763147,0.9799718,2.201283
5.499286,138.9886,0.6461703,0.9798071,2.201283
5.549091,136.3185,0.6411456,0.9798071,2.201283
5.60024,137.7171,0.6637544,0.9798071,2.207742
5.64864,131.614,0.6662663,0.9798071,2.207742
5.698256,126.528,0.6687781,0.9798071,2.201283
5.749631,124.8751,0.708971,0.9799718,2.207742
5.798286,125.2566,0.7014344,0.9796425,2.207742
5.849589,118.6448,0.613514,0.9798071,2.214201
5.898226,114.5761,0.5105205,0.9798071,2.214201
5.948315,111.3974,0.4376714,0.9799718,2.214201
5.999713,108.4729,0.3999904,0.9798071,2.22066
6.048225,105.4214,0.3798945,0.9798071,2.22066
6.099317,103.2598,0.2517804,0.9798071,2.22066
6.149235,99.95398,0.06086553,0.9798071,2.227119
6.19933,98.04675,-0.02705578,0.9798071,2.227119
6.249325,96.64812,-0.009470774,0.9799718,2.233578
6.299331,92.96081,-0.06222393,0.9799718,2.233578
6.35009,90.41783,-0.1802896,0.9798071,2.233578
6.398841,119.0263,-0.3008672,0.9798071,2.233578
6.44871,141.023,-0.2933316,0.9799718,2.233578
6.49996,141.7859,-0.2908188,0.9798071,2.240038
6.548674,140.1329,-0.34106,0.9798071,2.240038
6.60033,142.1673,-0.3812529,0.9799718,2.240038
6.648962,136.6999,-0.4164211,0.9799718,2.246497
6.698461,130.8511,-0.4289814,0.9798071,2.240038
6.749709,129.1982,-0.4465654,0.9798071,2.246497
6.798332,127.6724,-0.491782,0.9798071,2.240038
6.850207,121.315,-0.511878,0.9798071,2.246497
6.898314,115.5933,-0.5797033,0.9798071,2.252956
6.948325,112.2874,-1.370994,0.9798071,2.246497
6.999604,110.3802,-1.481524,0.9798071,2.252956
7.048301,106.9472,-1.576981,0.9796425,2.252956
7.099607,104.1499,-1.700071,0.9798071,2.252956
7.148262,100.2083,-1.710119,0.9798071,2.252956
7.198753,99.31824,-1.541813,0.9798071,2.252956
7.249978,96.64812,-1.323266,0.9798071,2.252956
7.298752,93.34225,-1.149935,0.9798071,2.259415
7.350126,89.90925,-1.034382,0.9799718,2.259415
7.398367,108.6001,-0.9087798,0.9799718,2.259415
7.448956,138.9886,-0.7078175,0.9798071,2.259415
7.499772,139.4972,-0.5143908,0.9798071,2.259415
7.549083,139.3701,-0.361156,0.9798071,2.265874
7.599833,140.6415,-0.1752659,0.9798071,2.265874
7.649078,138.9886,-0.08231989,0.9798071,2.265874
7.698426,124.8751,0.01816082,0.9798071,2.265874
7.750255,125.7652,0.2718772,0.9799718,2.265874
7.798579,125.2566,0.389942,0.9799718,2.265874
7.849352,120.9335,0.4351595,0.9798071,2.265874
7.898953,117.119,0.4552555,0.9798071,2.272334
7.948583,113.5589,0.4853999,0.9798071,2.272334
7.999701,109.9987,0.5356402,0.9798071,2.278793
8.048344,105.6757,0.6084893,0.9798071,2.272334
8.099476,103.5141,0.6813384,0.9799718,2.278793
8.149425,100.844,0.7290669,0.9798071,2.285252
8.199439,99.19109,0.8496445,0.9798071,2.278793
8.25043,96.90242,0.8898373,0.9798071,2.285252
8.299455,93.85085,0.8898373,0.9799718,2.285252
8.350466,91.94361,0.8823017,0.9798071,2.291711
8.398742,112.9231,0.8722533,0.9798071,2.291711
8.448443,138.6072,0.8823017,0.9798071,2.291711
8.499698,138.2257,0.9074214,0.9799718,2.29817
8.549199,136.9542,0.9551508,0.9798071,2.29817
8.599835,137.3357,0.9651983,0.9799718,2.304629
8.649435,129.5796,0.9476143,0.9798071,2.304629
8.698948,124.3665,0.9224936,0.9798071,2.304629
8.750446,124.8751,0.9174699,0.9798071,2.311089
8.799248,124.3665,0.9199817,0.9798071,2.324007
8.849452,116.4833,0.9124461,0.9798071,2.324007
8.899487,114.1946,0.8973739,0.9798071,2.317548
8.949048,108.0915,0.8873255,0.9799718,2.317548
8.999991,104.9128,0.8873255,0.9799718,2.324007
9.048718,103.5141,0.877277,0.9798071,2.324007
9.099489,101.4798,0.8471326,0.9798071,2.336925
9.149476,99.19109,0.8722533,0.9798071,2.336925
9.199434,97.28386,0.9199817,0.9798071,2.336925
9.249496,94.10515,0.9300302,0.9798071,2.336925
9.299012,90.79928,0.9023977,0.9799718,2.336925
9.350242,96.13953,0.8521573,0.9798071,2.343384
9.399026,137.3357,0.839597,0.9799718,2.343384
9.449002,140.6415,0.8119645,0.9798071,2.349844
9.4997,136.1913,0.8069407,0.9798071,2.349844
9.548558,138.9886,0.7968923,0.9798071,2.349844
9.599721,136.9542,0.784332,0.9798071,2.349844
9.648477,127.6724,0.7491638,0.9798071,2.356302
9.698498,124.1122,0.7466519,0.9798071,2.362762
9.749708,125.2566,0.7240432,0.9799718,2.356302
9.798697,120.6792,0.7139947,0.9798071,2.362762
9.849937,115.4661,0.6913869,0.9798071,2.362762
9.898691,111.1431,0.6612425,0.9798071,2.362762
9.948654,107.3286,0.63361,0.9799718,2.369221
9.99994,104.0227,0.6059775,0.9798071,2.362762
10.04849,101.8612,0.5456887,0.9798071,2.369221
10.09968,99.57254,0.4879118,0.9798071,2.369221
10.1484,97.66531,0.4577674,0.9798071,2.369221
10.19849,94.61374,0.3346779,0.9798071,2.37568
10.2495,91.94361,0.1085949,0.9798071,2.37568
10.29947,91.81647,-0.04966361,0.9798071,2.37568
10.34941,131.1054,-0.1928499,0.9798071,2.37568
10.39911,142.0402,-0.2003856,0.9799718,2.37568
10.44894,139.4972,-0.1677293,0.9798071,2.382139
10.50006,142.6759,-0.08734457,0.9798071,2.37568
10.54866,142.6759,-0.01198358,0.9799718,2.382139
10.59944,130.0882,0.08598617,0.9798071,2.382139
10.64944,127.6724,0.2794129,0.9798071,2.37568
10.69931,126.9095,0.558249,0.9798071,2.382139
10.75056,122.0779,0.7943804,0.9798071,2.37568
10.79952,119.7892,1.012927,0.9798071,2.382139
10.8502,112.6688,1.236499,0.9799718,2.382139
10.89918,108.0915,1.427413,0.9799718,2.388598
10.94897,104.7856,1.520358,0.9798071,2.388598
10.99999,103.8956,1.540455,0.9799718,2.388598
11.04857,101.8612,1.535431,0.9798071,2.388598
11.09963,98.80965,1.527894,0.9798071,2.388598
11.14861,98.55534,1.507798,0.9798071,2.382139
11.19843,91.94361,1.462582,0.9798071,2.388598
11.24943,93.34225,1.389733,0.9798071,2.382139
11.29925,124.3665,1.329444,0.9798071,2.388598
11.34981,139.7515,1.316884,0.9798071,2.388598
11.39893,138.0986,1.326932,0.9799718,2.388598
11.44881,135.8099,1.342004,0.9798071,2.388598
11.5001,137.8443,1.329444,0.9799718,2.388598
11.54864,128.4353,1.321907,0.9798071,2.388598
11.59959,124.8751,1.321907,0.9798071,2.388598
11.64947,125.638,1.354565,0.9799718,2.388598
11.69922,118.2634,1.384709,0.9798071,2.388598
11.75059,116.229,1.412341,0.9798071,2.388598
11.79878,115.0847,1.427413,0.9798071,2.388598
11.85064,109.2358,1.417365,0.9798071,2.388598
11.89967,106.82,1.407317,0.9798071,2.395057
11.94909,103.7684,1.412341,0.9798071,2.388598
12.00005,101.8612,1.429926,0.9799718,2.388598
12.04876,98.80965,1.439973,0.9798071,2.388598
12.1001,97.28386,1.424901,0.9798071,2.388598
12.14894,93.08795,1.397268,0.9799718,2.388598
12.19892,101.8612,1.392245,0.9798071,2.395057
12.25005,141.7859,1.402293,0.9798071,2.395057
12.29941,144.9646,1.399781,0.9799718,2.395057
12.35067,141.4044,1.377172,0.9799718,2.395057
12.3993,142.0402,1.354565,0.9799718,2.395057
12.4493,140.6415,1.32442,0.9798071,2.395057
12.50055,130.0882,1.314372,0.9798071,2.395057
12.5493,127.4181,1.289251,0.9799718,2.401517
12.60046,126.7823,1.166162,0.9799718,2.395057
12.64947,119.0263,1.070704,0.9798071,2.395057
12.69922,115.4661,1.035536,0.9798071,2.395057
12.75068,112.1602,0.9325421,0.9798071,2.395057
12.79947,110.253,0.8220129,0.9799718,2.401517
12.85063,108.8544,0.7315797,0.9799718,2.395057
12.89913,106.4386,0.688875,0.9798071,2.395057
12.94867,100.3354,0.6386337,0.9799718,2.395057
13.00047,96.90242,0.5456887,0.9798071,2.401517
13.04947,96.13953,0.3974786,0.9798071,2.401517
13.10073,123.9851,0.1789312,0.9799718,2.395057
13.14946,144.7103,0.1236671,0.9798071,2.401517
13.19909,142.5488,0.1035702,0.9799718,2.401517
13.25021,141.6587,0.05584177,0.9798071,2.401517
13.29888,143.0574,0.005601424,0.9798071,2.407976
13.35033,136.1913,-0.1074405,0.9798071,2.401517
13.39909,128.0538,-0.1903381,0.9798071,2.401517
13.44909,126.0195,-0.2129459,0.9798071,2.401517
13.50022,127.2909,-0.2355547,0.9798071,2.401517
13.54895,119.0263,-0.3033791,0.9798071,2.407976
13.60034,115.5933,-0.3837648,0.9799718,2.401517
13.64875,110.6345,-0.4616376,0.9798071,2.407976
13.69879,108.4729,-0.5972874,0.9896896,2.407976
13.75009,105.6757,-0.6550643,0.9898543,2.407976
13.79942,103.387,-0.6374803,0.9898543,2.407976
13.85009,99.95398,-0.6701365,0.9898543,2.407976
13.89872,94.2323,-0.7882022,0.9898543,2.414435
13.94974,98.04675,-1.026846,0.9898543,2.414435
13.99992,138.0986,-1.149935,0.9898543,2.407976
14.04954,145.2189,-1.180079,0.9898543,2.407976
14.10073,141.7859,-1.262977,0.9900191,2.407976
14.14946,142.9302,-1.519204,0.9898543,2.414435
14.19946,143.8203,-1.62471,0.9896896,2.414435
14.25073,131.9954,-1.582006,0.9898543,2.414435
14.29904,129.5796,-1.536788,0.9898543,2.407976
14.35004,127.6724,-1.484036,0.9898543,2.414435
14.39866,120.9335,-1.403651,0.9898543,2.414435
14.44983,115.0847,-1.290609,0.9896896,2.414435
14.49963,111.5245,-1.182592,0.9896896,2.414435
14.54953,107.71,-0.8937076,0.9898543,2.414435
14.60077,105.2942,-0.7580578,0.9898543,2.407976
14.64954,103.0055,-0.697769,0.9898543,2.414435
14.69954,101.2255,-0.5947756,0.9898543,2.414435
14.75058,98.04675,-0.4239567,0.9898543,2.414435
14.79933,96.52097,-0.34106,0.9898543,2.414435
14.85029,93.46941,-0.2782594,0.9898543,2.414435
14.89906,102.3698,-0.2330428,0.9900191,2.414435
14.94878,137.3357,-0.1375849,0.9898543,2.414435
15.00062,143.566,-0.05720017,0.9900191,2.414435
15.04906,142.9302,0.0005767399,0.9896896,2.414435
15.10004,143.3117,0.04830521,0.9898543,2.414435
15.14966,132.7583,0.1111068,0.9898543,2.414435
15.19954,126.528,0.2241478,0.9900191,2.414435
15.25053,126.0195,0.3221176,0.9898543,2.414435
15.2992,126.9095,0.4753515,0.9898543,2.414435
15.35028,118.5177,0.5783449,0.9898543,2.414435
15.39966,115.0847,0.6436584,0.9898543,2.414435
15.44867,110.253,0.7240432,0.9898543,2.420894
15.50082,106.0571,0.784332,0.9898543,2.414435
15.54928,103.7684,0.8094526,0.9898543,2.420894
15.60053,99.31824,0.8370851,0.9898543,2.420894
15.64903,98.30104,0.8823017,0.9898543,2.420894
15.69889,100.4626,0.9325421,0.9898543,2.420894
15.75081,90.67213,0.9224936,0.9898543,2.420894
15.79889,90.03638,0.8747652,0.9900191,2.427353
15.84966,107.2015,0.8195001,0.9898543,2.427353
15.8994,139.7515,0.7742835,0.9896896,2.427353
15.94892,140.5144,0.7315797,0.9900191,2.427353
16.00017,137.4628,0.6687781,0.9898543,2.427353
16.04964,139.3701,0.6009537,0.9898543,2.427353
16.10019,133.5212,0.5356402,0.9898543,2.433812
16.14869,125.638,0.5004721,0.9900191,2.427353
16.1999,124.1122,0.4728396,0.9898543,2.433812
16.24979,124.8751,0.4477189,0.9900191,2.427353
16.29965,114.7032,0.4100389,0.9896896,2.433812
16.35065,111.906,0.3196057,0.9898543,2.433812
16.3994,109.9987,0.221636,0.9898543,2.433812
16.4494,102.8784,0.1864678,0.9898543,2.433812
16.50065,108.3458,0.1412512,0.9898543,2.433812
16.5494,105.5485,0.0684021,0.9898543,2.433812
16.60069,102.6241,0.005601424,0.9898543,2.440272
16.64909,104.5313,0.01564894,0.9896896,2.433812
16.6998,102.3698,-0.02956766,0.9896896,2.433812
16.75065,100.3354,-0.1149771,0.9896896,2.433812
16.79944,99.95398,-0.248115,0.9896896,2.433812
16.84985,122.4593,-0.3209632,0.9898543,2.440272
16.89969,142.5488,-0.3385482,0.9898543,2.440272
16.94965,139.1158,-0.3737163,0.9896896,2.446731
17.00089,138.9886,-0.398837,0.9898543,2.440272
17.04902,139.7515,-0.4390289,0.9898543,2.446731
17.10015,126.0195,-0.4767098,0.9898543,2.440272
17.14894,126.0195,-0.4867583,0.9898543,2.440272
17.19993,123.2222,-0.5043424,0.9898543,2.440272
17.25027,123.7308,-0.5194145,0.9898543,2.440272
17.29966,117.8819,-0.5369986,0.9898543,2.440272
17.35091,111.5245,-0.5470471,0.9898543,2.446731
17.39915,109.9987,-0.5495589,0.9900191,2.446731
17.44991,107.2015,-0.5420224,0.9898543,2.446731
17.49991,103.387,-0.567143,0.9898543,2.440272
17.54992,101.4798,-0.5822152,0.9898543,2.446731
17.60094,98.04675,-0.5420224,0.9898543,2.446731
17.64913,95.24948,-0.4767098,0.9898543,2.446731
17.69914,93.08795,-0.4792217,0.9900191,2.446731
17.74994,89.5278,-0.5319749,0.9898543,2.446731
17.79977,90.41783,-0.622408,0.9898543,2.446731
17.85062,128.4353,-0.7856904,0.9898543,2.446731
17.89915,155.1365,-1.06955,0.9898543,2.45319
17.94915,155.5179,-1.948762,0.9898543,2.446731
18.00014,149.5419,-2.302959,0.9900191,2.45319
18.04887,145.346,-2.483826,0.9898543,2.446731
18.10027,142.1673,-2.657157,0.9898543,2.446731
18.149,139.3701,-2.69735,0.9898543,2.446731
18.19996,135.8099,-2.682277,0.9900191,2.446731
18.25,129.9611,-2.629524,0.9898543,2.45319
18.29976,122.9679,-2.526531,0.9896896,2.45319
18.34976,116.6105,-2.383345,0.9898543,2.45319
18.39976,104.4042,-2.149726,0.9898543,2.45319
18.44975,95.37663,-1.978907,0.9898543,2.45319
18.50064,97.28386,-1.767896,0.9896896,2.45319
18.54877,92.32506,-1.63727,0.9898543,2.446731
18.59977,90.79928,-1.423747,0.9900191,2.446731
18.64977,89.5278,-1.082111,0.9898543,2.45319
18.69939,85.71333,-0.8560276,0.9898543,2.45319
18.75039,83.29751,-0.7655935,0.9898543,2.45319
18.80006,88.7649,-0.7027928,0.9900191,2.45319
18.85076,116.4833,-0.5470471,0.9898543,2.45319
18.90006,150.6863,-0.3184513,0.9898543,2.45319
18.94891,147.7619,-0.1777778,0.9896896,2.45319
19.00099,145.6003,-0.05971205,0.9898543,2.45319
19.04951,143.4388,0.01313706,0.9898543,2.459649
19.10004,135.5556,0.07342585,0.9898543,2.459649
19.14993,132.3769,0.2467566,0.9898543,2.459649
19.19964,129.5796,0.4477189,0.9896896,2.45319
19.25076,125.638,0.5808568,0.9898543,2.45319
19.29926,123.3493,0.6587306,0.9898543,2.459649
19.35038,114.7032,0.7165076,0.9898543,2.459649
19.39888,117.3734,0.7918685,0.9898543,2.459649
19.45003,115.5933,0.8270367,0.9896896,2.459649
19.50003,108.4729,0.8320605,0.9896896,2.459649
19.54988,107.9643,0.8546692,0.9898543,2.459649
19.60103,104.7856,0.8948621,0.9898543,2.466108
19.64951,102.8784,0.9099342,0.9898543,2.459649
19.69938,101.9884,0.8973739,0.9898543,2.466108
19.75051,90.79928,0.8722533,0.9898543,2.459649
19.79893,118.5177,0.8622048,0.9898543,2.466108
19.84988,133.5212,0.8345723,0.9898543,2.472568
19.90002,130.724,0.7617241,0.9898543,2.466108
19.94951,127.2909,0.7114828,0.9898543,2.472568
20.0006,127.5452,0.6612425,0.9898543,2.472568
20.04926,128.0538,0.6260734,0.9898543,2.479027
20.1001,124.6208,0.5934172,0.9896896,2.472568
20.14888,121.4421,0.5632728,0.9898543,2.479027
20.19888,122.9679,0.5155443,0.9898543,2.472568
20.25038,114.7032,0.4904236,0.9898543,2.479027
20.29901,118.6448,0.4301348,0.9898543,2.479027
20.35038,117.7548,0.389942,0.9898543,2.479027
20.39913,115.339,0.3045335,0.9898543,2.479027
20.44913,111.3974,0.1789312,0.9898543,2.479027
20.50038,107.2015,0.1186424,0.9898543,2.479027
20.549,100.7169,0.2316844,0.9898543,2.479027
20.60013,96.13953,0.23922,0.9898543,2.479027
20.64888,76.30434,0.09854649,0.9898543,2.485486
20.699,85.20473,-0.02956766,0.9898543,2.479027
20.75026,129.5796,-0.09488021,0.9898543,2.479027
20.79904,148.7791,-0.1400968,0.9898543,2.485486
20.8505,142.9302,-0.2506269,0.9898543,2.479027
20.8992,139.3701,-0.3209632,0.9898543,2.479027
20.94925,139.3701,-0.3837648,0.9896896,2.479027
21.00063,136.5728,-0.4289814,0.9898543,2.479027
21.04956,134.2841,-0.4566139,0.9896896,2.479027
21.101,129.1982,-0.4616376,0.9898543,2.485486
21.1495,126.528,-0.4867583,0.9898543,2.485486
21.19937,124.3665,-0.511878,0.9898543,2.485486
21.25054,122.0779,-0.5445352,0.9900191,2.485486
21.29914,121.315,-0.5445352,0.9898543,2.485486
21.35037,115.4661,-0.5847271,0.9898543,2.485486
21.39925,112.6688,-0.6927453,0.9898543,2.485486
21.44925,113.1774,-0.7831785,0.9896896,2.491945
21.50015,102.8784,-0.8032745,0.9898543,2.485486
21.55,86.47623,-1.373506,0.9898543,2.491945
21.59999,79.73734,-1.61215,0.9898543,2.485486
21.64975,89.14634,-1.667414,0.9898543,2.491945
21.69975,141.7859,-1.712631,0.9900191,2.491945
21.75037,135.8099,-1.757848,0.9898543,2.485486
21.80017,140.2601,-1.843257,0.9900191,2.491945
21.85015,136.9542,-1.865866,0.9900191,2.491945
21.899,138.7343,-1.838233,0.9898543,2.491945
21.94975,135.4285,-1.777944,0.9896896,2.491945
21.99999,134.2841,-1.695047,0.9900191,2.491945
22.04987,127.9267,-1.592053,0.9898543,2.491945
22.10044,118.1362,-1.519204,0.9896896,2.491945
22.14912,122.5864,-1.433796,0.9898543,2.491945
22.19912,114.4489,-1.227809,0.9898543,2.491945
22.2505,114.1946,-0.9087798,0.9896896,2.491945
22.3,113.1774,-0.7605697,0.9898543,2.491945
22.35088,111.5245,-0.6626009,0.9898543,2.491945
22.39962,108.3458,-0.5143908,0.9898543,2.491945
22.44934,106.5657,-0.3284997,0.9898543,2.498404
22.50049,105.93,-0.2179706,0.9896896,2.491945
22.54912,103.8956,-0.1501452,0.9898543,2.491945
22.60025,97.66531,-0.117489,0.9898543,2.491945
22.65011,126.7823,-0.04463986,0.9898543,2.491945
22.69974,134.7927,0.04830521,0.9898543,2.498404
22.75082,130.724,0.146275,0.9896896,2.491945
22.79931,134.6656,0.2718772,0.9898543,2.498404
22.85045,133.9027,0.4200873,0.9898543,2.498404
22.89916,129.9611,0.5758331,0.9900191,2.491945
22.95017,126.9095,0.7190194,0.9900191,2.498404
23.00099,118.8991,0.8094526,0.9898543,2.498404
23.04933,118.5177,0.8521573,0.9896896,2.491945
23.10026,116.6105,0.8823017,0.9896896,2.498404
23.14915,113.9403,0.9199817,0.9896896,2.498404
23.20011,112.9231,0.9752468,0.9900191,2.498404
23.25111,110.6345,1.025487,0.9896896,2.498404
23.30016,109.6173,1.045584,0.9898543,2.498404
23.35049,109.2358,1.113408,0.9799718,2.498404
23.39918,110.5073,1.191282,0.9798071,2.498404
23.44984,103.387,1.188769,0.9798071,2.498404
23.5006,101.4798,1.133505,0.9798071,2.498404
23.54911,107.5829,1.090801,0.9799718,2.498404
23.60035,126.7823,1.073217,0.9799718,2.498404
23.65024,134.2841,1.030512,0.9798071,2.498404
23.70011,130.724,0.9727349,0.9798071,2.498404
23.75128,132.7583,0.9325421,0.9798071,2.498404
23.79974,129.1982,0.9049096,0.9799718,2.504864
23.85086,122.5864,0.8898373,0.9799718,2.504864
23.89936,121.8235,0.8722533,0.9799718,2.504864
23.94908,121.8235,0.8471326,0.9798071,2.504864
23.99986,115.9747,0.8094526,0.9799718,2.504864
24.05086,112.6688,0.7818201,0.9898543,2.504864
24.10014,113.4317,0.7667479,0.9896896,2.504864
24.15011,115.4661,0.7139947,0.9898543,2.504864
24.20011,109.9987,0.6386337,0.9898543,2.504864
24.24986,110.6345,0.5808568,0.9898543,2.504864
24.30113,111.5245,0.5833696,0.9898543,2.504864
24.34957,106.5657,0.5482005,0.9900191,2.504864
24.39937,105.2942,0.4175745,0.9898543,2.504864
24.44937,113.4317,0.2090756,0.9898543,2.504864
24.49911,128.4353,0.1085949,0.9896896,2.504864
24.55021,137.3357,0.06086553,0.9896896,2.504864
24.59988,135.4285,0.005601424,0.9898543,2.504864
24.6499,142.1673,-0.04212797,0.9898543,2.504864
24.69915,138.6072,-0.07729613,0.9898543,2.504864
24.7491,131.9954,-0.1250246,0.9898543,2.504864
24.80062,132.3769,-0.1677293,0.9900191,2.504864
24.84986,127.7995,-0.1853134,0.9898543,2.504864
24.8999,122.4593,-0.2054103,0.9898543,2.504864
24.9499,123.2222,-0.2330428,0.9896896,2.504864
24.99985,118.2634,-0.2757466,0.9898543,2.504864
25.05115,121.315,-0.2908188,0.9798071,2.504864
25.0999,117.7548,-0.3008672,0.9798071,2.504864
25.14987,115.4661,-0.3536204,0.9799718,2.504864
25.1996,113.686,-0.436517,0.9798071,2.504864
25.24911,109.9987,-0.4566139,0.9798071,2.504864
25.30037,109.9987,-0.4515892,0.9798071,2.504864
25.3491,104.277,-0.5369986,0.9798071,2.504864
25.40006,89.90925,-0.6600881,0.9798071,2.504864
25.44984,124.2394,-0.7806657,0.9798071,2.504864
25.49946,133.9027,-0.8359307,0.9798071,2.498404
25.5506,140.1329,-0.9640449,0.9798071,2.498404
25.60038,143.3117,-1.117279,0.9798071,2.504864
25.65037,139.7515,-1.250417,0.9799718,2.498404
25.7001,138.2257,-1.443843,0.9798071,2.498404
25.7501,134.6656,-1.700071,0.9798071,2.498404
25.80139,133.2669,-1.780456,0.9798071,2.498404
25.8501,127.2909,-1.755336,0.9799718,2.498404
25.90034,122.5864,-1.745288,0.9798071,2.498404
25.94983,122.205,-1.707607,0.9799718,2.504864
26.00039,118.6448,-1.702583,0.9799718,2.491945
26.0511,116.6105,-1.664903,0.9898543,2.498404
26.09981,116.6105,-1.592053,0.9898543,2.491945
26.14989,110.6345,-1.546837,0.9898543,2.498404
26.1998,107.2015,-1.524229,0.9898543,2.491945
26.24986,106.9472,-1.491572,0.9898543,2.491945
26.30114,107.2015,-1.310705,0.9898543,2.491945
26.34988,101.8612,-1.001725,0.9896896,2.491945
26.39967,99.19109,-0.8309069,0.9898543,2.485486
26.44926,97.66531,-0.7655935,0.9898543,2.491945
26.50035,116.9919,-0.7053047,0.9898543,2.485486
26.55125,130.2153,-0.604824,0.9896896,2.485486
26.59999,134.6656,-0.4892702,0.9900191,2.485486
26.64986,132.3769,-0.3686926,0.9898543,2.485486
26.69973,136.4456,-0.2280181,0.9898543,2.491945
26.74974,133.9027,-0.09236833,0.9898543,2.479027
26.80074,131.9954,0.02067362,0.9898543,2.479027
26.85034,131.614,0.1889797,0.9898543,2.479027
26.89996,127.2909,0.7391154,0.9896896,2.479027
26.94971,122.0779,0.7868438,0.9896896,2.479027
26.99984,119.7892,0.8295485,0.9898543,2.479027
27.0506,122.5864,0.8320605,0.9898543,2.479027
27.10026,117.3734,0.7617241,0.9898543,2.479027
27.15001,116.3562,0.7918685,0.9898543,2.479027
27.19974,107.71,0.8596929,0.9900191,2.472568
27.24971,105.5485,0.9099342,0.9898543,2.472568
27.30088,107.4557,0.9827824,0.9900191,2.472568
27.34947,104.5313,1.020463,0.9898543,2.472568
27.39933,103.7684,1.093313,0.9900191,2.466108
27.44961,93.85085,1.113408,0.9898543,2.466108
27.49956,75.54144,1.110897,0.9898543,2.466108
27.55033,86.47623,1.123457,0.9896896,2.466108
27.60053,139.4972,1.136017,0.9898543,2.459649
27.64935,135.4285,1.156113,0.9896896,2.459649
27.70037,134.4113,1.143553,0.9898543,2.466108
27.75025,135.1741,1.070704,0.9898543,2.459649
27.80025,133.9027,0.9827824,0.9900191,2.459649
27.85008,129.1982,0.8320605,0.9896896,2.459649
27.89984,129.5796,0.7617241,0.9900191,2.45319
27.94944,125.638,0.6637544,0.9898543,2.45319
27.99961,119.662,0.5858815,0.9898543,2.45319
28.05058,123.3493,0.5482005,0.9798071,2.45319
28.0996,119.662,0.5180562,0.9798071,2.446731
28.1496,117.8819,0.4602793,0.9798071,2.446731
28.1997,115.4661,0.3999904,0.9798071,2.440272
28.24985,103.1327,0.3723579,0.9798071,2.440272
28.30113,109.9987,0.2241478,0.9798071,2.440272
28.35012,93.34225,0.01313706,0.9798071,2.440272
28.39965,84.44184,-0.01198358,0.9799718,2.440272
28.44985,85.45904,-0.01951922,0.9799718,2.440272
28.49985,83.80611,-0.1576809,0.9798071,2.433812
28.55086,80.62739,-0.2983553,0.9798071,2.433812
28.60017,119.5349,-0.3561323,0.9799718,2.433812
28.64985,149.1605,-0.3661807,0.9798071,2.433812
28.69937,148.5248,-0.3762282,0.9799718,2.427353
28.74937,141.023,-0.4088845,0.9798071,2.427353
28.80064,142.0402,-0.4515892,0.9799718,2.427353
28.84946,141.4044,-0.4716861,0.9798071,2.427353
28.89933,138.2257,-0.491782,0.9798071,2.427353
28.94949,135.4285,-0.4993186,0.9798071,2.420894
28.99937,134.0298,-0.5068542,0.9798071,2.420894
29.05085,131.4868,-0.5143908,0.9798071,2.414435
29.0995,125.0023,-0.5244383,0.9798071,2.420894
29.15012,117.5005,-0.5596074,0.9798071,2.414435
29.2001,111.0159,-0.5696549,0.9799718,2.414435
29.24998,94.2323,-0.5822152,0.9799718,2.420894
29.30124,96.90242,-0.6826969,0.9798071,2.420894
29.34984,96.13953,-0.8585395,0.9798071,2.427353
29.39999,94.2323,-0.9464608,0.9801366,2.427353
29.44984,92.7065,-1.190128,0.9798071,2.427353
29.5,86.85767,-1.516692,0.9798071,2.433812
29.55124,84.569,-1.710119,0.9798071,2.427353
29.59999,114.1946,-1.983932,0.9799718,2.427353
29.64945,138.48,-2.049244,0.9798071,2.427353
29.69996,137.3357,-2.107021,0.9799718,2.427353
29.74982,136.4456,-2.531555,0.9799718,2.427353
29.80081,149.0334,-2.777734,0.9799718,2.427353
29.85034,133.5212,-2.767687,0.9798071,2.427353
29.9002,125.2566,-2.777734,0.9798071,2.433812
29.9502,123.6036,-2.584307,0.9799718,2.427353
30.00032,121.8235,-2.410977,0.9799718,2.427353
30.05124,115.9747,-2.222575,0.9798071,2.427353
30.09984,111.1431,-1.946251,0.9798071,2.427353
30.14999,109.2358,-1.511669,0.9798071,2.427353
30.19999,106.4386,-1.00675,0.9799718,2.427353
30.24957,103.1327,-0.7831785,0.9798071,2.427353
30.30057,124.3665,-0.6374803,0.9798071,2.427353
30.35032,99.06393,-0.436517,0.9798071,2.427353
30.39994,92.57936,-0.2054103,0.9799718,2.427353
30.44962,90.29069,-0.03207953,0.9798071,2.427353
30.49949,89.2735,0.06086553,0.9798071,2.433812
30.55062,88.7649,0.1236671,0.9798071,2.433812
30.60057,110.7616,0.296997,0.9799718,2.433812
30.64978,141.4044,0.4653039,0.9799718,2.433812
30.70002,139.7515,0.5557371,0.9798071,2.433812
30.75016,140.6415,0.6110012,0.9798071,2.440272
30.80077,139.8786,0.6788266,0.9798071,2.433812
30.84954,130.3425,0.7340916,0.9798071,2.440272
30.90044,124.3665,0.8144764,0.9798071,2.446731
30.95001,124.4937,0.9049096,0.9798071,2.446731
30.99994,122.9679,0.9827824,0.9799718,2.446731
31.05083,116.8647,1.075728,0.9798071,2.446731
31.09944,112.796,1.146065,0.9796425,2.45319
31.14972,109.9987,1.193794,0.9798071,2.446731
31.19965,109.9987,1.221427,0.9798071,2.45319
31.24944,107.8372,1.254083,0.9798071,2.45319
31.30071,107.5829,1.274179,0.9798071,2.459649
31.35056,107.0743,1.331956,0.9798071,2.459649
31.40044,106.0571,1.34954,0.9798071,2.459649
31.45028,93.59654,1.347028,0.9799718,2.459649
31.50031,96.13953,1.329444,0.9798071,2.459649
31.55156,136.3185,1.334468,0.9798071,2.459649
31.60019,157.1709,1.347028,0.9798071,2.466108
31.65006,137.4628,1.339492,0.9798071,2.466108
31.69994,140.5144,1.321907,0.9798071,2.472568
31.74956,141.4044,1.289251,0.9799718,2.472568
31.80057,133.6484,1.259107,0.9799718,2.472568
31.84941,126.528,1.244034,0.9798071,2.479027
31.89981,126.1466,1.233986,0.9798071,2.479027
31.94982,121.8235,1.223938,0.9798071,2.479027
32.00004,119.662,1.198818,0.9798071,2.485486
32.05056,112.0331,1.133505,0.9799718,2.485486
32.09966,109.8716,1.098336,0.9798071,2.491945
32.14943,107.3286,1.06568,0.9798071,2.491945
32.20032,104.4042,1.025487,0.9798071,2.491945
32.25035,102.6241,0.9827824,0.9798071,2.498404
32.30131,101.6069,0.9677102,0.9799718,2.498404
32.3501,96.77527,0.9049096,0.9798071,2.498404
32.40007,91.81647,0.8044279,0.9799718,2.498404
32.44986,102.3698,0.7064591,0.9798071,2.504864
32.49986,142.4216,0.6361219,0.9798071,2.504864
32.55061,146.8718,0.5909052,0.9796425,2.504864
32.6006,150.3048,0.5281046,0.9798071,2.504864
32.65059,142.8031,0.4753515,0.9799718,2.504864
32.7006,143.9474,0.3648223,0.9796425,2.504864
32.7506,131.9954,0.1914916,0.9798071,2.511322
32.80135,128.0538,0.08598617,0.9798071,2.511322
32.84956,126.528,0.0533299,0.9798071,2.511322
32.90055,121.4421,0.0005767399,0.9798071,2.504864
32.9506,116.8647,-0.04966361,0.9798071,2.511322
32.9996,134.2841,-0.07729613,0.9801366,2.511322
33.05069,100.4626,-0.08734457,0.9798071,2.511322
33.10059,108.9815,-0.1049286,0.9798071,2.517781
33.1506,104.0227,-0.2204825,0.9798071,2.517781
33.20059,101.0983,-0.4038607,0.9799718,2.517781
33.25045,99.44539,-0.3837648,0.9798071,2.517781
33.30143,98.04675,-0.3661807,0.9798071,2.517781
33.34983,97.41101,-0.4415417,0.9798071,2.524241
33.39982,94.99519,-0.5219264,0.9798071,2.517781
33.44955,142.4216,-0.6148715,0.9799718,2.517781
33.49955,149.5419,-0.6374803,0.9798071,2.517781
33.55055,146.3632,-0.6475278,0.9798071,2.517781
33.60043,146.2361,-0.7053047,0.9798071,2.517781
33.65005,148.0162,-0.886172,0.9799718,2.517781
33.69992,141.7859,-0.9590211,0.9796425,2.517781
33.74974,134.9198,-1.074574,0.9798071,2.524241
33.80167,131.2325,-1.195152,0.9798071,2.524241
33.85002,130.4697,-1.310705,0.9798071,2.524241
33.8998,123.4765,-1.458915,0.9798071,2.524241
33.9498,119.4077,-1.597078,0.9798071,2.524241
33.99988,107.0743,-1.700071,0.9798071,2.524241
34.05117,112.796,-1.682487,0.9798071,2.524241
34.10067,108.4729,-1.619686,0.9798071,2.524241
34.15067,102.3698,-1.594565,0.9798071,2.524241
34.20055,98.9368,-1.531765,0.9798071,2.524241
34.25047,96.01237,-1.2052,0.9798071,2.524241
34.30133,93.978,-0.7756419,0.9798071,2.524241
34.35054,106.9472,-0.6751603,0.9798071,2.524241
34.40034,80.11879,-0.604824,0.9798071,2.524241
34.45005,121.4421,-0.5194145,0.9799718,2.524241
34.49955,146.1089,-0.3310116,0.9798071,2.524241
34.55159,143.4388,-0.1375849,0.9798071,2.524241
34.59994,142.9302,0.02820926,0.9799718,2.524241
34.64979,146.3632,0.2316844,0.9799718,2.524241
34.69967,139.7515,0.4150626,0.9798071,2.5307
34.74967,132.7583,0.5130324,0.9798071,2.524241
34.80167,127.2909,0.6285862,0.9796425,2.524241
34.84954,126.7823,0.7366035,0.9798071,2.524241
34.90017,120.9335,0.8295485,0.9799718,2.524241
34.95017,114.1946,0.9049096,0.9798071,2.524241
35.00043,110.8888,0.9651983,0.9799718,2.517781
35.05154,106.5657,1.007903,0.9798071,2.524241
35.09967,104.0227,1.070704,0.9798071,2.524241
35.15041,100.9712,1.095824,0.9798071,2.517781
35.20042,98.04675,1.136017,0.9798071,2.517781
35.25029,97.02956,1.241523,0.9798071,2.517781
35.30103,97.02956,1.269155,0.9798071,2.517781
35.34979,108.7272,1.271667,0.9798071,2.517781
35.39979,104.9128,1.261618,0.9799718,2.517781
35.45041,130.3425,1.269155,0.9798071,2.511322
35.50029,143.566,1.279203,0.9798071,2.517781
35.55141,137.8443,1.289251,0.9796425,2.511322
35.60016,139.2429,1.31186,0.9798071,2.517781
35.65016,139.3701,1.301811,0.9798071,2.511322
35.70016,130.4697,1.281715,0.9799718,2.511322
35.75076,125.2566,1.274179,0.9798071,2.511322
35.80067,125.8923,1.259107,0.9798071,2.511322
35.85041,121.8235,1.231474,0.9798071,2.511322
35.90027,114.3218,1.198818,0.9798071,2.511322
35.94979,112.6688,1.130993,0.9798071,2.511322
36.00005,107.5829,1.103361,0.9798071,2.504864
36.05126,104.6585,1.083264,0.9798071,2.511322
36.10006,101.0983,1.040559,0.9798071,2.511322
36.15058,99.19109,0.9827824,0.9798071,2.511322
36.19979,97.53816,0.9300302,0.9799718,2.511322
36.2505,96.39381,0.9325421,0.9799718,2.511322
36.30167,93.08795,0.8345723,0.9798071,2.511322
36.35066,90.16354,0.7592113,0.9798071,2.511322
36.40066,118.5177,0.6738028,0.9798071,2.511322
36.45066,144.8374,0.63361,0.9798071,2.504864
36.50051,142.4216,0.5934172,0.9798071,2.511322
36.55145,140.2601,0.5331284,0.9796425,2.504864
36.60017,143.3117,0.4502317,0.9798071,2.511322
36.65011,135.047,0.3371898,0.9798071,2.511322
36.70079,128.9439,0.1487868,0.9798071,2.511322
36.75166,127.6724,0.06589022,0.9798071,2.511322
36.80166,126.0195,0.03072114,0.9798071,2.511322
36.85041,118.1362,-0.04966361,0.9798071,2.511322
36.90041,112.5417,-0.1149771,0.9796425,2.511322
36.94978,110.1259,-0.2405784,0.9799718,2.517781
37.0018,108.0915,-0.2983553,0.9798071,2.511322
37.05165,104.6585,-0.3636679,0.9798071,2.511322
37.10044,99.44539,-0.4993186,0.9798071,2.511322
37.1504,96.90242,-0.6550643,0.9798071,2.517781
37.2004,96.13953,-0.6701365,0.9798071,2.511322
37.25165,93.2151,-0.8359307,0.9798071,2.511322
37.30165,91.18073,-1.026846,0.9798071,2.517781
37.35028,90.67213,-1.293121,0.9798071,2.511322
37.40014,133.6484,-1.423747,0.9798071,2.517781
37.45012,147.2533,-1.456404,0.9798071,2.517781
37.5014,141.913,-1.504132,0.9798071,2.517781
37.55128,143.8203,-1.582006,0.9798071,2.517781
37.60003,145.346,-1.777944,0.9798071,2.517781
37.64978,131.8683,-1.79804,0.9799718,2.517781
37.6999,127.5452,-1.875913,0.9798071,2.517781
37.7511,126.1466,-1.890985,0.9798071,2.517781
37.8009,125.2566,-1.89601,0.9799718,2.524241
37.85065,117.2462,-1.901034,0.9798071,2.517781
37.90065,112.9231,-1.89601,0.9798071,2.517781
37.94975,109.9987,-1.863354,0.9798071,2.517781
38.00097,105.0399,-1.780456,0.9798071,2.517781
38.05178,102.1155,-1.7478,0.9798071,2.517781
38.1004,100.3354,-1.730216,0.9798071,2.524241
38.1499,98.1739,-1.604614,0.9798071,2.517781
38.20079,95.37663,-1.04443,0.9798071,2.517781
38.25094,88.89205,-0.7128413,0.9796425,2.517781
38.30165,87.23911,-0.5922636,0.9798071,2.524241
38.3504,95.50377,-0.5344868,0.9798071,2.517781
38.39978,135.8099,-0.4139092,0.9798071,2.524241
38.45047,143.4388,-0.1677293,0.9799718,2.517781
38.50126,139.7515,-0.01449546,0.9796425,2.524241
38.55086,141.023,0.1713956,0.9798071,2.517781
38.6009,138.3529,0.3547738,0.9798071,2.517781
38.64979,128.8167,0.4954483,0.9798071,2.517781
38.70077,127.2909,0.6110012,0.9798071,2.517781
38.75149,124.4937,0.7165076,0.9796425,2.517781
38.80125,121.1878,0.8094526,0.9798071,2.517781
38.85065,115.4661,0.8923492,0.9798071,2.517781
38.90065,111.2702,0.970223,0.9798071,2.517781
38.95024,105.6757,1.058144,0.9798071,2.511322
39.00116,103.7684,1.108385,0.9798071,2.517781
39.05102,100.4626,1.130993,0.9798071,2.517781
39.1004,97.53816,1.125969,0.9796425,2.524241
39.15002,96.90242,1.218914,0.9798071,2.517781
39.19977,93.72369,1.256595,0.9799718,2.517781
39.2514,90.03638,1.254083,0.9798071,2.517781
39.30185,91.43503,1.236499,0.9798071,2.517781
39.35057,135.047,1.241523,0.9798071,2.517781
39.40056,142.6759,1.266643,0.9799718,2.517781
39.45025,137.59,1.274179,0.9798071,2.517781
39.50101,138.6072,1.301811,0.9798071,2.517781
39.5518,137.0814,1.309347,0.9799718,2.517781
39.60027,127.6724,1.299299,0.9798071,2.511322
39.65051,122.5864,1.291763,0.9798071,2.511322
39.70006,121.8235,1.289251,0.9798071,2.511322
39.75129,117.119,1.274179,0.9796425,2.511322
39.80201,115.0847,1.246546,0.9798071,2.517781
39.85051,110.253,1.193794,0.9796425,2.517781
39.90054,105.4214,1.156113,0.9798071,2.517781
39.95027,101.9884,1.100848,0.9799718,2.517781
40.00156,100.844,1.040559,0.9796425,2.517781
40.05155,96.39381,0.9878071,0.9798071,2.524241
40.10053,93.85085,0.9727349,0.9798071,2.5307
40.15054,91.94361,0.9275183,0.9798071,2.5307
40.20053,85.20473,0.8421088,0.9798071,2.5307
40.25178,91.81647,0.7617241,0.9798071,2.5307
40.30154,134.9198,0.7064591,0.9798071,2.537159
40.35018,142.6759,0.67129,0.9798071,2.537159
40.40077,138.2257,0.6210496,0.9796425,2.537159
40.45052,138.6072,0.5708093,0.9798071,2.537159
40.50176,138.6072,0.520568,0.9796425,2.537159
40.5518,129.3253,0.4929355,0.9796425,2.537159
40.60032,125.7652,0.4653039,0.9799718,2.537159
40.65033,122.5864,0.4175745,0.9799718,2.537159
40.69995,116.229,0.3497501,0.9799718,2.537159
40.7513,113.4317,0.2492685,0.9798071,2.537159
40.8013,111.6517,0.2090756,0.9799718,2.5307
40.85101,105.2942,0.1663709,0.9798071,2.537159
40.90029,104.1499,0.05835366,0.9799718,2.537159
40.95101,101.0983,-0.06222393,0.9798071,2.537159
41.00131,99.57254,-0.079808,0.9798071,2.537159
41.05123,94.61374,-0.2255062,0.9898543,2.537159
41.10001,92.07076,-0.3636679,0.9896896,2.537159
41.151,99.06393,-0.4691733,0.9898543,2.537159
41.19985,135.047,-0.5922636,0.9898543,2.537159
41.25097,146.8718,-0.6525525,0.9898543,2.537159
41.30148,142.5488,-0.8158348,0.9896896,2.537159
41.35009,142.4216,-1.054478,0.9898543,2.537159
41.4005,142.6759,-1.373506,0.9898543,2.537159
41.4506,131.7411,-1.446355,0.9898543,2.537159
41.50126,127.7995,-1.544325,0.9896896,2.537159
41.55125,125.2566,-1.551861,0.9896896,2.537159
41.60093,124.8751,-1.566934,0.9898543,2.537159
41.65079,116.7376,-1.592053,0.9896896,2.537159
41.70065,112.6688,-1.592053,0.9896896,2.537159
41.75179,108.0915,-1.576981,0.9896896,2.537159
41.80149,106.5657,-1.58703,0.9896896,2.537159
41.85,100.4626,-1.647318,0.9898543,2.543618
41.89988,98.1739,-1.594565,0.9896896,2.543618
41.95104,96.52097,-1.376019,0.9896896,2.543618
42.00135,93.46941,-1.175056,0.9898543,2.543618
42.05088,88.38345,-0.981629,0.9898543,2.543618
42.10048,111.7788,-0.8987314,0.9896896,2.543618
42.1504,145.0918,-0.7379619,0.9896896,2.543618
42.2001,144.3289,-0.5922636,0.9898543,2.543618
42.25129,141.913,-0.4189329,0.9896896,2.543618
42.30142,142.6759,-0.248115,0.9896896,2.543618
42.35029,139.1158,-0.135073,0.9896896,2.543618
42.39996,127.7995,-0.001935139,0.9898543,2.543618
42.45104,126.4009,0.2819248,0.9898543,2.543618
42.50112,125.2566,0.5054958,0.9896896,2.543618
42.55212,115.2118,0.6612425,0.9896896,2.543618
42.60074,110.7616,0.7692598,0.9896896,2.543618
42.65063,107.3286,0.8521573,0.9898543,2.543618
42.70049,103.8956,0.8998858,0.9898543,2.537159
42.75149,101.0983,0.9576627,0.9898543,2.537159
42.80134,99.95398,1.05312,0.9898543,2.543618
42.85104,98.04675,1.138529,0.9896896,2.537159
42.90116,96.64812,1.188769,0.9896896,2.537159
42.95117,90.54498,1.20133,0.9898543,2.543618
43.00145,104.4042,1.20133,0.9898543,2.537159
43.05104,144.2017,1.22645,0.9896896,2.537159
43.10116,142.9302,1.269155,0.9896896,2.537159
43.15104,139.3701,1.301811,0.9898543,2.537159
43.20091,140.6415,1.339492,0.9898543,2.537159
43.25162,137.9714,1.377172,0.9898543,2.537159
43.30162,125.2566,1.397268,0.9898543,2.537159
43.35042,126.1466,1.419877,0.9896896,2.537159
43.40046,125.638,1.434949,0.9898543,2.537159
43.44999,117.8819,1.427413,0.9898543,2.537159
43.50124,113.9403,1.414853,0.9896896,2.537159
43.55124,108.8544,1.392245,0.9896896,2.537159
43.59999,107.0743,1.367124,0.9898543,2.537159
43.65028,102.3698,1.296788,0.9898543,2.537159
43.70029,100.0811,1.21389,0.9896896,2.537159
43.75142,97.66531,1.191282,0.9896896,2.5307
43.80128,96.52097,1.095824,0.9896896,2.5307
43.85114,91.43503,1.005391,0.9896896,2.5307
43.90042,114.7032,0.9250064,0.9896896,2.5307
43.95055,141.4044,0.8973739,0.9898543,2.5307
44.00103,143.6931,0.8747652,0.9898543,2.5307
44.05103,139.1158,0.839597,0.9898543,2.5307
44.10003,138.9886,0.7767963,0.9896896,2.5307
44.15003,137.2085,0.7215313,0.9896896,2.5307
44.20016,145.4732,0.6938988,0.9898543,2.537159
44.25129,117.8819,0.653706,0.9898543,2.5307
44.30128,124.1122,0.6210496,0.9898543,2.537159
44.35015,123.7308,0.5783449,0.9898543,2.537159
44.40003,108.7272,0.5431768,0.9898543,2.537159
44.45004,106.9472,0.4954483,0.9898543,2.537159
44.50183,104.6585,0.3572857,0.9898543,2.537159
44.55177,105.2942,0.1814431,0.9896896,2.537159
44.60056,91.43503,0.1588353,0.9896896,2.5307
44.65059,96.64812,0.1437631,0.9898543,2.5307
44.70061,92.07076,0.05081802,0.9896896,2.5307
44.75176,90.29069,-0.07227237,0.9898543,2.537159
44.80175,114.9575,-0.1853134,0.9898543,2.5307
44.8506,146.7447,-0.2079221,0.9898543,2.5307
44.90027,145.346,-0.2682109,0.9898543,2.5307
44.95003,144.2017,-0.3485957,0.9896896,2.5307
45.00161,146.2361,-0.5344868,0.9898543,2.5307
45.05159,144.0746,-0.6399921,0.9898543,2.5307
45.10003,129.1982,-0.7228897,0.9896896,2.5307
45.15002,125.638,-0.7379619,0.9896896,2.5307
45.20003,122.205,-0.7605697,0.9898543,2.5307
45.25203,116.9919,-0.7806657,0.9898543,2.5307
45.30203,113.9403,-0.7756419,0.9898543,2.5307
45.3502,111.1431,-0.8309069,0.9898543,2.5307
45.40023,106.82,-1.290609,0.9898543,2.5307
45.4501,103.5141,-1.43882,0.9896896,2.5307
45.50206,103.387,-1.398627,0.9898543,2.5307
45.55173,94.48659,-1.360947,0.9898543,2.5307
45.60035,95.37663,-1.35341,0.9896896,2.5307
45.6501,102.7513,-1.398627,0.9898543,2.5307
45.70086,141.2773,-1.368482,0.9896896,2.537159
45.7521,146.4904,-1.245393,0.9896896,2.5307
45.80202,144.2017,-1.051966,0.9896896,2.5307
45.85048,143.8203,-0.7982507,0.9896896,2.537159
45.90128,141.4044,-0.697769,0.9896896,2.537159
45.95102,129.8339,-0.587239,0.9898543,2.537159
46.00227,126.528,-0.4340051,0.9896896,2.537159
46.05169,125.5108,-0.248115,0.9898543,2.5307
46.10127,121.4421,-0.08985645,0.9898543,2.537159
46.15039,112.4145,0.005601424,0.9896896,2.5307
46.20014,111.1431,0.1286909,0.9898543,2.537159
46.2511,109.9987,0.3723579,0.9896896,2.537159
46.30171,108.9815,0.5833696,0.9896896,2.537159
46.3501,104.1499,0.6637544,0.9896896,2.537159
46.40049,101.9884,0.7592113,0.9898543,2.537159
46.4501,98.9368,0.8571811,0.9898543,2.537159
46.50187,92.7065,0.8873255,0.9896896,2.537159
46.5511,89.2735,0.8923492,0.9896896,2.537159
46.60072,119.9163,0.8998858,0.9898543,2.537159
46.65023,140.2601,0.9501261,0.9898543,2.537159
46.70097,140.5144,1.000367,0.9896896,2.537159
46.7521,138.2257,1.068192,0.9896896,2.537159
46.8021,137.8443,1.141041,0.9896896,2.537159
46.85072,146.999,1.208866,0.9898543,2.537159
46.90135,127.7995,1.261618,0.9896896,2.537159
46.95134,135.047,1.316884,0.9898543,2.537159
47.00163,130.9782,1.382196,0.9896896,2.537159
47.05135,125.2566,1.424901,0.9898543,2.537159
47.10064,126.6552,1.452533,0.9898543,2.5307
47.15047,121.4421,1.470117,0.9896896,2.537159
47.20047,107.3286,1.482678,0.9898543,2.537159
47.25169,106.5657,1.47263,0.9898543,2.537159
47.30235,102.3698,1.450022,0.9898543,2.537159
47.35109,101.6069,1.444998,0.9898543,2.5307
47.40048,99.31824,1.412341,0.9898543,2.5307
47.45022,94.99519,1.31186,0.9898543,2.5307
47.50214,110.7616,1.208866,0.9898543,2.5307
47.55155,123.9851,1.120945,0.9896896,2.5307
47.60073,133.5212,1.085776,0.9898543,2.5307
47.65073,131.7411,1.002879,0.9896896,2.5307
47.70122,131.2325,0.9626865,0.9898543,2.5307
47.7517,132.6312,0.9325421,0.9896896,2.5307
47.80174,122.9679,0.9074214,0.9898543,2.5307
47.85046,119.4077,0.8873255,0.9898543,2.5307
47.90134,120.0435,0.8647167,0.9896896,2.5307
47.95055,114.0675,0.8471326,0.9898543,2.5307
48.00198,112.0331,0.8270367,0.9898543,2.5307
48.05198,107.71,0.7968923,0.9898543,2.5307
48.10034,104.6585,0.7717717,0.9898543,2.5307
48.15026,101.8612,0.7165076,0.9896896,2.5307
48.20109,98.04675,0.6185378,0.9896896,2.5307
48.25222,95.37663,0.5632728,0.9896896,2.524241
48.30204,93.46941,0.5532243,0.9898543,2.5307
48.35071,91.18073,0.4426952,0.9896896,2.5307
48.40103,88.7649,0.2115875,0.9896896,2.5307
48.45073,108.6001,0.1437631,0.9896896,2.524241
48.50172,140.2601,0.1111068,0.9896896,2.5307
48.55133,141.4044,0.08598617,0.9896896,2.524241
48.60096,139.3701,0.0382577,0.9896896,2.524241
48.65045,140.6415,-0.03961517,0.9896896,2.524241
48.70121,134.6656,-0.1400968,0.9898543,2.524241
48.75225,122.5864,-0.2003856,0.9900191,2.517781
48.80219,122.5864,-0.2606744,0.9896896,2.524241
48.85073,120.9335,-0.2958435,0.9896896,2.524241
48.90096,114.7032,-0.34106,0.9898543,2.517781
48.95082,108.9815,-0.3737163,0.9898543,2.517781
49.00233,105.6757,-0.4038607,0.9896896,2.517781
49.05233,103.7684,-0.4666614,0.9798071,2.517781
49.10082,100.7169,-0.5596074,0.9798071,2.517781
49.15072,98.55534,-0.6826969,0.9798071,2.517781
49.20081,95.75809,-0.6852087,0.9798071,2.517781
49.25208,94.48659,-0.755546,0.9798071,2.517781
49.30182,88.38345,-0.9891655,0.9798071,2.511322
49.35059,95.24948,-1.144911,0.9798071,2.511322
49.40122,123.8579,-1.250417,0.9799718,2.517781
49.45121,142.1673,-1.257953,0.9798071,2.511322
49.50229,141.1501,-1.280561,0.9798071,2.511322
49.55196,138.2257,-1.35341,0.9798071,2.511322
49.60145,139.8786,-1.534276,0.9798071,2.511322
49.65134,129.5796,-1.534276,0.9798071,2.504864
49.70118,124.2394,-1.4765,0.9798071,2.504864
49.75137,122.0779,-1.338338,0.9798071,2.504864
49.80157,119.5349,-1.099695,0.9798071,2.504864
49.85108,113.9403,-0.8032745,0.9799718,2.504864
49.90105,109.2358,-0.6651128,0.9796425,2.504864
49.95033,105.2942,-0.529463,0.9798071,2.498404
50.00188,102.7513,-0.3084038,0.9798071,2.498404
50.05233,98.80965,-0.135073,0.9798071,2.504864
50.1008,96.64812,-0.02956766,0.9798071,2.498404
50.15058,95.37663,0.07091397,0.9796425,2.498404
50.20049,91.56216,0.1940034,0.9798071,2.498404
50.25208,86.47623,0.2743891,0.9798071,2.498404
50.30204,104.9128,0.3120691,0.9799718,2.498404
50.35133,140.2601,0.4477189,0.9798071,2.498404
50.40125,140.5144,0.5984418,0.9798071,2.498404
50.45107,138.6072,0.6989225,0.9798071,2.498404
50.50237,138.2257,0.7968923,0.9798071,2.491945
50.55171,135.8099,0.8596929,0.9798071,2.498404
50.60033,126.528,0.9275183,0.9799718,2.491945
50.65085,125.7652,1.002879,0.9799718,2.498404
50.70093,123.7308,1.075728,0.9796425,2.491945
50.75208,116.6105,1.171185,0.9798071,2.491945
50.80207,113.5589,1.239011,0.9798071,2.491945
50.8507,107.8372,1.306835,0.9799718,2.491945
50.90058,105.8028,1.352052,0.9798071,2.491945
50.95132,102.7513,1.402293,0.9798071,2.485486
51.00158,98.9368,1.417365,0.9798071,2.485486
51.05157,96.90242,1.450022,0.9798071,2.491945
51.10093,94.61374,1.465094,0.9798071,2.485486
51.1507,91.94361,1.452533,0.9798071,2.485486
51.20033,91.81647,1.434949,0.9798071,2.485486
51.25145,135.047,1.434949,0.9798071,2.485486
51.30145,142.9302,1.432437,0.9799718,2.485486
51.35116,139.1158,1.419877,0.9798071,2.491945
51.4007,135.047,1.407317,0.9798071,2.491945
51.4507,135.047,1.37466,0.9796425,2.491945
51.50195,123.2222,1.342004,0.9799718,2.491945
51.55195,123.6036,1.316884,0.9796425,2.498404
51.6007,122.9679,1.301811,0.9798071,2.498404
51.65074,115.8476,1.284227,0.9799718,2.498404
51.70144,113.1774,1.254083,0.9798071,2.498404
51.75216,110.3802,1.246546,0.9798071,2.498404
51.80221,108.2186,1.206354,0.9798071,2.491945
51.85082,103.387,1.125969,0.9799718,2.491945
51.90082,101.4798,1.070704,0.9798071,2.498404
51.95057,97.41101,1.060656,0.9798071,2.491945
52.00203,93.46941,0.9953427,0.9798071,2.491945
52.05177,91.56216,0.9325421,0.9796425,2.491945
52.10056,105.5485,0.8647167,0.9798071,2.491945
52.15157,141.4044,0.8270367,0.9798071,2.491945
52.2007,142.6759,0.8094526,0.9798071,2.491945
52.25165,138.2257,0.7466519,0.9798071,2.498404
52.30186,138.6072,0.6738028,0.9798071,2.498404
52.35157,136.6999,0.6260734,0.9798071,2.498404
52.40144,127.2909,0.5607609,0.9798071,2.498404
52.45156,125.3837,0.5406649,0.9798071,2.498404
52.50241,123.9851,0.5105205,0.9798071,2.504864
52.55231,117.3734,0.4150626,0.9798071,2.498404
52.60156,110.8888,0.332166,0.9798071,2.504864
52.65156,107.71,0.3045335,0.9798071,2.504864
52.70156,104.9128,0.2442447,0.9798071,2.498404
52.75256,101.4798,0.1588353,0.9796425,2.498404
52.80244,101.3526,0.1136187,0.9799718,2.498404
52.85096,98.55534,0.1085949,0.9798071,2.504864
52.90105,94.61374,0.02067362,0.9798071,2.498404
52.95098,91.18073,-0.1501452,0.9798071,2.498404
53.00243,104.6585,-0.2782594,0.9798071,2.498404
53.05256,141.4044,-0.3084038,0.9799718,2.504864
53.10094,146.6175,-0.3335235,0.9798071,2.498404
53.15068,141.7859,-0.3737163,0.9799718,2.498404
53.20133,143.0574,-0.4515892,0.9798071,2.498404
53.25217,138.2257,-0.4993186,0.9798071,2.498404
53.30205,127.6724,-0.5369986,0.9799718,2.498404
53.35069,124.8751,-0.5545827,0.9798071,2.498404
53.40043,124.4937,-0.5596074,0.9798071,2.498404
53.45155,118.5177,-0.5897518,0.9798071,2.498404
53.50156,113.9403,-0.6173834,0.9798071,2.498404
53.55256,110.3802,-0.62492,0.9799718,2.498404
53.60071,104.9128,-0.6324556,0.9798071,2.498404
53.65055,103.387,-0.697769,0.9798071,2.491945
53.70073,98.55534,-0.810811,0.9796425,2.498404
53.752,96.64812,-0.6776731,0.9798071,2.498404
53.80144,94.61374,-0.5997993,0.9798071,2.491945
53.85093,93.08795,-0.5570946,0.9798071,2.491945
53.90048,90.29069,-0.5395105,0.9798071,2.491945
53.95147,133.5212,-0.4440536,0.9798071,2.491945
54.00241,144.8374,-0.2832831,0.9798071,2.491945
54.05219,141.4044,-0.1275365,0.9798071,2.491945
54.10155,140.6415,-0.03207953,0.9798071,2.491945
54.15113,142.1673,0.03574582,0.9796425,2.485486
54.20107,132.3769,0.09603461,0.9798071,2.491945
54.2518,125.3837,0.2291725,0.9798071,2.485486
54.30168,124.8751,0.3447254,0.9798071,2.485486
54.3513,124.4937,0.5080077,0.9798071,2.485486
54.40097,113.9403,0.6210496,0.9798071,2.485486
54.45155,109.1087,0.7165076,0.9798071,2.485486
54.50267,106.0571,0.8119645,0.9799718,2.485486
54.55206,103.5141,0.8471326,0.9798071,2.485486
54.60164,100.0811,0.8873255,0.9798071,2.485486
54.65107,97.28386,0.9576627,0.9798071,2.485486
54.7008,96.13953,1.035536,0.9798071,2.479027
54.75206,94.99519,1.080752,0.9798071,2.479027
54.80155,90.79928,1.120945,0.9798071,2.479027
54.85067,95.75809,1.133505,0.9799718,2.479027
54.901,141.913,1.173697,0.9798071,2.479027
54.95118,143.6931,1.218914,0.9796425,2.479027
55.00243,138.6072,1.274179,0.9798071,2.479027
55.05218,139.3701,1.329444,0.9798071,2.479027
55.10092,135.8099,1.377172,0.9798071,2.479027
55.15092,125.638,1.424901,0.9798071,2.472568
55.20067,123.9851,1.455045,0.9799718,2.472568
55.25167,122.5864,1.480166,0.9798071,2.472568
55.30167,120.5521,1.47263,0.9798071,2.472568
55.35167,110.7616,1.457557,0.9798071,2.479027
55.40142,106.82,1.44751,0.9798071,2.472568
55.45119,105.8028,1.429926,0.9798071,2.472568
55.50242,101.8612,1.369637,0.9799718,2.466108
55.55242,99.31824,1.306835,0.9799718,2.472568
55.60092,96.39381,1.286739,0.9798071,2.466108
55.65072,93.08795,1.241523,0.9798071,2.466108
55.70071,87.87486,1.125969,0.9798071,2.466108
55.75171,94.61374,1.038047,0.9798071,2.466108
55.80271,115.0847,0.9953427,0.9799718,2.472568
55.85109,139.1158,0.9802705,0.9799718,2.466108
55.90118,138.6072,0.9425905,0.9799718,2.466108
55.95097,135.8099,0.8973739,0.9798071,2.466108
56.00267,134.2841,0.8596929,0.9798071,2.459649
56.05271,126.0195,0.8446208,0.9799718,2.466108
56.10142,122.9679,0.8169882,0.9799718,2.459649
56.15143,120.5521,0.7918685,0.9798071,2.466108
56.20121,115.9747,0.7717717,0.9798071,2.466108
56.25243,110.6345,0.7366035,0.9799718,2.466108
56.30244,106.5657,0.7139947,0.9799718,2.466108
56.35119,103.5141,0.6964107,0.9798071,2.459649
56.40077,100.7169,0.6436584,0.9798071,2.459649
56.45071,98.1739,0.5507124,0.9798071,2.459649
56.50265,95.75809,0.4979602,0.9799718,2.45319
56.55193,92.96081,0.4753515,0.9798071,2.459649
56.60141,91.56216,0.3045335,0.9799718,2.459649
56.65091,85.71333,0.1965153,0.9799718,2.459649
56.70091,109.6173,0.126179,0.9798071,2.459649
56.75191,142.9302,0.1111068,0.9799718,2.45319
56.80194,145.346,0.08849805,0.9798071,2.45319
56.85066,140.6415,0.06086553,0.9798071,2.45319
56.90066,141.023,-0.01449546,0.9798071,2.45319
56.95066,134.0298,-0.08985645,0.9796425,2.45319
57.00252,125.2566,-0.1426087,0.9798071,2.45319
57.05188,123.3493,-0.1576809,0.9799718,2.446731
57.10104,121.8235,-0.1752659,0.9798071,2.446731
57.15104,117.7548,-0.1727531,0.9798071,2.446731
57.20078,110.253,-0.1802896,0.9798071,2.45319
57.25166,108.8544,-0.1953618,0.9798071,2.446731
57.30167,105.4214,-0.2129459,0.9798071,2.446731
57.35166,102.3698,-0.2606744,0.9796425,2.446731
57.40091,97.66531,-0.3360354,0.9798071,2.446731
57.45154,95.75809,-0.3485957,0.9798071,2.446731
57.50266,94.2323,-0.3360354,0.9798071,2.440272
57.55231,91.18073,-0.3913004,0.9796425,2.440272
57.60095,86.47623,-0.4942939,0.9798071,2.440272
57.65091,125.1294,-0.5369986,0.9799718,2.440272
57.70078,145.2189,-0.5545827,0.9798071,2.440272
57.75178,141.7859,-0.5570946,0.9798071,2.440272
57.80196,139.3701,-0.5646312,0.9798071,2.433812
57.85082,139.8786,-0.5797033,0.9798071,2.440272
57.90182,135.4285,-0.5771915,0.9799718,2.440272
57.9517,124.1122,-0.5520709,0.9798071,2.440272
58.00283,122.9679,-0.4993186,0.9798071,2.440272
58.05203,122.0779,-0.4465654,0.9801366,2.440272
58.10096,115.4661,-0.3586441,0.9798071,2.440272
58.15116,109.9987,-0.2757466,0.9799718,2.440272
58.2017,104.5313,-0.08231989,0.9799718,2.433812
58.25266,102.2427,0.05584177,0.9799718,2.440272
58.30235,98.80965,0.1236671,0.9798071,2.433812
58.35095,97.79247,0.1764194,0.9799718,2.433812
58.40094,92.32506,0.2794129,0.9798071,2.433812
58.45107,89.65494,0.4251111,0.9798071,2.433812
58.50219,88.63776,0.5456887,0.9799718,2.433812
58.55217,85.20473,0.5883934,0.9798071,2.433812
58.60065,102.2427,0.6160259,0.9799718,2.433812
58.65154,138.9886,0.6838503,0.9799718,2.433812
58.70154,141.4044,0.7541876,0.9798071,2.433812
58.75229,136.8271,0.8144764,0.9796425,2.427353
58.80219,136.1913,0.8571811,0.9798071,2.427353
58.8519,131.1054,0.8873255,0.9799718,2.427353
58.90147,124.1122,0.9250064,0.9798071,2.427353
58.95103,121.8235,0.9852952,0.9798071,2.427353
59.00203,120.1706,1.028,0.9798071,2.420894
59.05177,114.9575,1.073217,0.9801366,2.420894
59.10165,111.906,1.133505,0.9798071,2.427353
59.15165,106.6929,1.188769,0.9798071,2.420894
59.20165,102.3698,1.241523,0.9798071,2.414435
59.2529,98.42819,1.296788,0.9798071,2.414435
59.30267,96.52097,1.319395,0.9798071,2.420894
59.35133,94.10515,1.339492,0.9798071,2.414435
59.40137,91.56216,1.382196,0.9798071,2.414435
59.45167,88.25631,1.382196,0.9799718,2.414435
59.50281,86.34908,1.339492,0.9798071,2.414435
59.55281,91.05358,1.304323,0.9799718,2.414435
59.60143,134.0298,1.279203,0.9798071,2.414435
59.65133,138.2257,1.246546,0.9799718,2.414435
59.70119,133.5212,1.193794,0.9798071,2.414435
59.75256,130.8511,1.143553,0.9798071,2.414435
59.80241,130.4697,1.085776,0.9799718,2.414435
59.85104,121.315,1.075728,0.9798071,2.407976
59.90094,118.1362,1.063168,0.9798071,2.414435
59.95094,116.9919,1.055632,0.9799718,2.414435
60.0025,112.6688,1.035536,0.9799718,2.407976
60.05241,108.3458,1.020463,0.9799718,2.407976
60.10194,104.0227,0.9978546,0.9799718,2.407976
60.15194,100.7169,0.9802705,0.9798071,2.407976
60.20141,98.1739,0.9425905,0.9798071,2.414435
60.25265,95.75809,0.9023977,0.9799718,2.407976
60.30267,94.99519,0.8873255,0.9799718,2.407976
60.35147,89.90925,0.8421088,0.9798071,2.407976
60.40145,87.49342,0.7617241,0.9799718,2.414435
60.45143,91.05358,0.6612425,0.9798071,2.414435
60.50266,128.4353,0.5934172,0.9799718,2.414435
60.55265,140.6415,0.5557371,0.9799718,2.414435
60.60145,137.8443,0.4778633,0.9799718,2.407976
60.65144,134.6656,0.3723579,0.9799718,2.407976
60.70145,134.0298,0.2467566,0.9798071,2.414435
60.75214,124.1122,0.221636,0.9798071,2.414435
60.80218,122.205,0.2115875,0.9798071,2.414435
60.85189,120.5521,0.1914916,0.9799718,2.414435
60.90163,118.0091,0.1814431,0.9798071,2.414435
60.95155,113.0503,0.1663709,0.9798071,2.420894
61.00176,106.9472,0.1613472,0.9798071,2.414435
61.05276,103.5141,0.1437631,0.9799718,2.420894
61.10126,101.8612,0.09854649,0.9799718,2.420894
61.15201,97.28386,0.02820926,0.9798071,2.420894
61.20201,95.75809,0.003088618,0.9798071,2.420894
61.2529,94.2323,-0.01951922,0.9799718,2.420894
61.30293,92.19792,-0.155169,0.9798071,2.420894
61.35164,86.47623,-0.2883069,0.9796425,2.420894
61.40179,121.1878,-0.3184513,0.9798071,2.427353
61.45101,144.8374,-0.3209632,0.9798071,2.427353
61.50201,141.4044,-0.3360354,0.9798071,2.427353
61.55193,139.2429,-0.3586441,0.9798071,2.427353
61.60193,141.023,-0.3862767,0.9798071,2.427353
61.65161,134.2841,-0.4038607,0.9801366,2.427353
61.7015,129.1982,-0.4013489,0.9798071,2.427353
61.75243,126.7823,-0.3837648,0.9799718,2.427353
61.80238,124.1122,-0.3712045,0.9798071,2.427353
61.85201,115.8476,-0.361156,0.9799718,2.433812
61.9013,111.2702,-0.3385482,0.9798071,2.433812
61.95176,107.3286,-0.2983553,0.9798071,2.433812
62.00237,100.844,-0.2757466,0.9798071,2.427353
62.05201,98.80965,-0.2707228,0.9900191,2.433812
62.10117,98.04675,-0.2656991,0.9898543,2.433812
62.15092,94.99519,-0.1576809,0.9898543,2.433812
62.20139,94.61374,-0.06724769,0.9900191,2.440272
62.25214,90.03638,-0.02705578,0.9900191,2.433812
62.30288,91.18073,0.005601424,0.9898543,2.433812
62.35126,138.6072,0.08849805,0.9898543,2.433812
62.40126,144.0746,0.1764194,0.9898543,2.433812
62.45113,140.2601,0.2417319,0.9898543,2.440272
62.50238,140.1329,0.3371898,0.9898543,2.433812
62.55207,137.8443,0.4527436,0.9896896,2.440272
62.60152,124.4937,0.5808568,0.9898543,2.440272
62.65088,124.3665,0.6738028,0.9898543,2.446731
62.70139,122.5864,0.7592113,0.9900191,2.446731
62.75238,116.8647,0.839597,0.9898543,2.446731
62.80237,115.4661,0.8948621,0.9896896,2.446731
62.85101,111.0159,0.9325421,0.9898543,2.446731
62.902,105.6757,0.9978546,0.9900191,2.446731
62.95162,101.9884,1.033024,0.9896896,2.446731
63.00286,99.57254,1.05312,0.9896896,2.446731
63.05288,97.9196,1.098336,0.9799718,2.446731
63.10209,94.61374,1.166162,0.9799718,2.440272
63.15092,92.57936,1.191282,0.9799718,2.446731
63.20163,89.2735,1.191282,0.9798071,2.446731
63.25287,104.0227,1.198818,0.9798071,2.440272
63.3026,141.023,1.231474,0.9798071,2.440272
63.35137,141.4044,1.269155,0.9799718,2.446731
63.40141,137.7171,1.301811,0.9798071,2.446731
63.45142,138.48,1.331956,0.9799718,2.446731
63.50262,133.5212,1.339492,0.9799718,2.440272
63.55237,126.0195,1.367124,0.9798071,2.446731
63.6009,123.3493,1.387221,0.9798071,2.446731
63.6509,122.205,1.392245,0.9798071,2.446731
63.70137,116.9919,1.392245,0.9798071,2.440272
63.75249,111.5245,1.384709,0.9798071,2.440272
63.80249,111.0159,1.37466,0.9798071,2.446731
63.85187,104.1499,1.342004,0.9799718,2.440272
63.90187,101.4798,1.289251,0.9798071,2.440272
63.95151,98.80965,1.241523,0.9798071,2.440272
64.00263,96.64812,1.208866,0.9798071,2.440272
64.05237,94.99519,1.11592,0.9799718,2.440272
64.10217,92.32506,1.017951,0.9798071,2.440272
64.15216,101.8612,0.9375658,0.9798071,2.446731
64.20216,139.6244,0.9124461,0.9799718,2.440272
64.25216,144.456,0.877277,0.9798071,2.440272
64.30216,139.7515,0.8345723,0.9798071,2.440272
64.35187,136.5728,0.7767963,0.9798071,2.440272
64.40163,135.1741,0.7366035,0.9798071,2.440272
64.45163,126.4009,0.7139947,0.9799718,2.440272
64.50287,123.6036,0.7039472,0.9798071,2.440272
64.55264,122.7136,0.688875,0.9798071,2.446731
64.60124,117.8819,0.6662663,0.9799718,2.440272
64.65112,113.0503,0.6310981,0.9798071,2.440272
64.70112,109.6173,0.6160259,0.9799718,2.440272
64.75199,104.5313,0.5682974,0.9798071,2.440272
64.80312,102.7513,0.4577674,0.9798071,2.440272
64.85113,100.3354,0.3221176,0.9798071,2.440272
64.90112,98.9368,0.3070454,0.9798071,2.440272
64.95212,97.66531,0.2316844,0.9799718,2.440272
65.00224,90.79928,0.1412512,0.9798071,2.440272
65.05212,95.63092,0.07593773,0.9799718,2.440272
65.10175,144.9646,0.05081802,0.9798071,2.440272
65.15185,146.8718,0.01564894,0.9799718,2.446731
65.20141,142.9302,-0.05971205,0.9798071,2.440272
65.25241,143.566,-0.155169,0.9801366,2.446731
65.30215,142.5488,-0.1928499,0.9798071,2.440272
65.35199,131.4868,-0.2204825,0.9798071,2.446731
65.40162,129.1982,-0.23053,0.9798071,2.446731
65.4515,127.4181,-0.2380666,0.9798071,2.446731
65.50249,123.7308,-0.2581625,0.9799718,2.45319
65.55216,116.229,-0.2883069,0.9798071,2.446731
65.60198,113.8132,-0.3008672,0.9798071,2.45319
65.65163,109.9987,-0.305891,0.9799718,2.446731
65.70165,104.9128,-0.3310116,0.9799718,2.45319
65.75286,102.6241,-0.3862767,0.9799718,2.45319
65.80275,100.7169,-0.3887885,0.9798071,2.45319
65.85123,99.57254,-0.3812529,0.9799718,2.459649
65.90123,96.52097,-0.4390289,0.9798071,2.45319
65.95223,91.94361,-0.5269502,0.9798071,2.459649
66.0024,130.0882,-0.5470471,0.9798071,2.459649
66.05224,148.7791,-0.5369986,0.9799718,2.459649
66.10185,145.346,-0.5369986,0.9799718,2.459649
66.15136,144.456,-0.5344868,0.9798071,2.459649
66.20223,145.346,-0.5219264,0.9799718,2.459649
66.25223,135.8099,-0.4892702,0.9799718,2.459649
66.30223,131.614,-0.4189329,0.9798071,2.459649
66.35198,129.1982,-0.3259878,0.9798071,2.466108
66.40194,124.1122,-0.2154578,0.9799718,2.466108
66.45198,120.9335,-0.06222393,0.9798071,2.466108
66.50261,115.339,0.04579333,0.9798071,2.466108
66.55308,109.9987,0.1538115,0.9798071,2.459649
66.60161,106.0571,0.2417319,0.9798071,2.466108
66.65148,104.1499,0.3371898,0.9798071,2.466108
66.70148,99.06393,0.4376714,0.9798071,2.466108
66.7526,98.04675,0.5858815,0.9798071,2.466108
66.8026,97.02956,0.6989225,0.9798071,2.466108
66.85136,92.57936,0.7340916,0.9798071,2.466108
66.90135,90.67213,0.7541876,0.9798071,2.466108
66.95123,118.8991,0.7968923,0.9798071,2.466108
67.00259,144.456,0.8747652,0.9798071,2.466108
67.05248,144.5831,0.9074214,0.9798071,2.466108
67.10217,141.7859,0.9476143,0.9798071,2.466108
67.15185,141.023,0.9777586,0.9799718,2.466108
67.2012,135.8099,1.022975,0.9798071,2.466108
67.25248,127.2909,1.058144,0.9799718,2.466108
67.30247,125.2566,1.108385,0.9798071,2.466108
67.3511,124.1122,1.17621,0.9799718,2.466108
67.40223,120.6792,1.233986,0.9798071,2.466108
67.45227,114.1946,1.266643,0.9799718,2.466108
67.50212,112.2874,1.306835,0.9798071,2.466108
67.55227,107.9643,1.33698,0.9798071,2.466108
67.6018,105.1671,1.352052,0.9799718,2.466108
67.65179,99.95398,1.34954,0.9798071,2.466108
67.7019,97.41101,1.352052,0.9798071,2.466108
67.75324,97.28386,1.364612,0.9796425,2.459649
67.80322,95.75809,1.326932,0.9798071,2.466108
67.85207,91.68932,1.246546,0.9799718,2.466108
67.90188,105.1671,1.17621,0.9798071,2.466108
67.95168,139.8786,1.123457,0.9798071,2.466108
68.00327,143.9474,1.095824,0.9798071,2.466108
68.05322,139.1158,1.050608,0.9799718,2.466108
68.10139,136.9542,1.000367,0.9798071,2.466108
68.15131,133.1398,0.9727349,0.9799718,2.466108
68.20235,125.3837,0.9651983,0.9798071,2.459649
68.2531,124.2394,0.9651983,0.9798071,2.466108
68.30296,123.095,0.9677102,0.9799718,2.466108
68.35172,115.0847,0.9626865,0.9798071,2.466108
68.40211,111.7788,0.9501261,0.9798071,2.459649
68.45222,108.8544,0.9325421,0.9799718,2.466108
68.50223,104.9128,0.914958,0.9798071,2.459649
68.55223,103.1327,0.8797898,0.9798071,2.459649
68.60223,98.9368,0.8169882,0.9798071,2.459649
68.65134,97.28386,0.7767963,0.9799718,2.466108
68.70234,96.26666,0.7742835,0.9796425,2.459649
68.75234,94.35944,0.7139947,0.9798071,2.466108
68.80234,90.03638,0.6185378,0.9798071,2.459649
68.85195,91.43503,0.5080077,0.9799718,2.459649
68.90197,137.7171,0.4376714,0.9798071,2.459649
68.95197,146.1089,0.3572857,0.9798071,2.466108
69.00282,142.1673,0.276901,0.9796425,2.459649
69.05334,140.2601,0.2367081,0.9796425,2.459649
69.10209,139.3701,0.1814431,0.9799718,2.459649
69.15209,128.4353,0.1613472,0.9798071,2.459649
69.20139,125.2566,0.1613472,0.9798071,2.459649
69.25261,123.7308,0.1512987,0.9799718,2.459649
69.3026,118.8991,0.1362265,0.9798071,2.459649
69.35145,114.7032,0.1161306,0.9798071,2.459649
69.40238,110.7616,0.08849805,0.9798071,2.459649
69.45225,105.5485,0.08598617,0.9798071,2.45319
69.50224,102.3698,0.08598617,0.9798071,2.459649
69.55285,99.95398,0.04579333,0.9798071,2.45319
69.60181,97.02956,-0.03207953,0.9798071,2.459649
69.65217,94.99519,-0.02956766,0.9798071,2.459649
69.70199,93.85085,-0.01449546,0.9798071,2.459649
69.75298,90.54498,-0.1049286,0.9798071,2.45319
69.80221,87.62056,-0.2330428,0.9798071,2.45319
69.85162,91.05358,-0.2883069,0.9798071,2.459649
69.90221,144.0746,-0.2908188,0.9798071,2.45319
69.95221,144.0746,-0.3033791,0.9798071,2.45319
70.00304,141.023,-0.3033791,0.9796425,2.45319
70.05271,141.4044,-0.3109156,0.9798071,2.45319
70.10133,136.8271,-0.3134275,0.9798071,2.45319
70.15234,128.9439,-0.3008672,0.9798071,2.45319
70.20199,126.528,-0.2883069,0.9798071,2.45319
70.25306,124.4937,-0.2682109,0.9796425,2.45319
70.30297,118.2634,-0.2456022,0.9796425,2.45319
70.35133,113.9403,-0.2179706,0.9796425,2.45319
70.40133,107.5829,-0.1727531,0.9798071,2.45319
70.45121,106.0571,-0.05720017,0.9798071,2.446731
70.50333,102.6241,0.005601424,0.9798071,2.45319
70.55308,97.9196,0.05081802,0.9798071,2.446731
70.60171,97.02956,0.1136187,0.9798071,2.446731
70.65158,93.85085,0.2065638,0.9798071,2.446731
70.70158,91.56216,0.2718772,0.9798071,2.446731
70.75283,88.38345,0.3221176,0.9798071,2.45319
70.80283,89.0192,0.3648223,0.9798071,2.446731
70.85158,131.614,0.4979602,0.9799718,2.446731
70.90132,143.4388,0.613514,0.9798071,2.446731
70.9513,140.6415,0.6813384,0.9796425,2.446731
71.00272,139.8786,0.7566994,0.9798071,2.446731
71.05262,139.3701,0.8094526,0.9798071,2.446731
71.10132,127.2909,0.8647167,0.9798071,2.446731
71.15135,124.6208,0.9199817,0.9796425,2.446731
71.20129,124.2394,0.9677102,0.9798071,2.446731
71.25233,121.315,1.020463,0.9798071,2.446731
71.30332,115.9747,1.050608,0.9798071,2.446731
71.35182,114.3218,1.095824,0.9796425,2.446731
71.40185,107.71,1.158625,0.9798071,2.45319
71.45187,105.2942,1.218914,0.9799718,2.45319
71.5031,102.8784,1.241523,0.9798071,2.45319
71.55312,99.95398,1.254083,0.9798071,2.45319
71.60171,98.04675,1.306835,0.9798071,2.459649
71.65133,96.13953,1.331956,0.9798071,2.45319
71.70136,92.96081,1.316884,0.9798071,2.45319
71.75233,90.92643,1.281715,0.9798071,2.45319
71.80312,125.0023,1.284227,0.9796425,2.459649
71.85133,145.346,1.304323,0.9798071,2.459649
71.90134,143.6931,1.304323,0.9798071,2.466108
71.95134,139.1158,1.299299,0.9796425,2.466108
72.00287,139.1158,1.274179,0.9796425,2.466108
72.05283,132.504,1.256595,0.9798071,2.472568
72.10133,127.2909,1.244034,0.9798071,2.472568
72.15132,125.3837,1.239011,0.9796425,2.472568
72.20132,122.205,1.218914,0.9798071,2.479027
72.25245,116.6105,1.186258,0.9798071,2.479027
72.3033,113.0503,1.130993,0.9796425,2.485486
72.35182,107.71,1.108385,0.9798071,2.479027
72.40157,105.4214,1.080752,0.9798071,2.485486
72.45132,102.6241,1.007903,0.9798071,2.485486
72.50256,100.4626,0.9601746,0.9798071,2.485486
72.55257,99.31824,0.9551508,0.9798071,2.491945
72.60133,97.41101,0.9124461,0.9798071,2.498404
72.65232,92.96081,0.8069407,0.9798071,2.491945
72.70228,100.7169,0.7114828,0.9796425,2.498404
72.75357,143.566,0.6637544,0.9798071,2.504864
72.80231,146.6175,0.6110012,0.9798071,2.498404
72.85194,141.7859,0.5331284,0.9799718,2.504864
72.90157,142.1673,0.4426952,0.9799718,2.511322
72.95144,139.3701,0.2919732,0.9798071,2.504864
73.00294,129.1982,0.2568041,0.9796425,2.511322
73.0526,127.6724,0.2291725,0.9798071,2.511322
73.10146,126.528,0.2115875,0.9798071,2.517781
73.15257,122.5864,0.1713956,0.9798071,2.517781
73.20226,115.5933,0.1512987,0.9798071,2.517781
73.25257,111.5245,0.1337146,0.9798071,2.517781
73.30282,107.71,0.1186424,0.9798071,2.517781
73.35233,104.9128,0.05835366,0.9798071,2.524241
73.40198,102.2427,-0.06724769,0.9798071,2.524241
73.45198,99.95398,-0.1250246,0.9798071,2.524241
73.50346,97.53816,-0.1451215,0.9798071,2.5307
73.55331,95.37663,-0.2280181,0.9798071,2.524241
73.60181,91.68932,-0.3310116,0.9798071,2.524241
73.65144,122.8407,-0.3737163,0.9799718,2.5307
73.70139,148.0162,-0.3862767,0.9798071,2.524241
73.75244,146.8718,-0.4038607,0.9798071,2.5307
73.80243,145.346,-0.4239567,0.9798071,2.5307
73.85194,146.8718,-0.4490773,0.9798071,2.5307
73.90181,138.2257,-0.4616376,0.9798071,2.5307
73.95143,132.8855,-0.4591258,0.9796425,2.5307
74.00285,130.9782,-0.4490773,0.9798071,2.5307
74.05322,127.6724,-0.4189329,0.9798071,2.5307
74.10256,121.0607,-0.4063726,0.9798071,2.5307
74.1524,116.9919,-0.4038607,0.9798071,2.537159
74.20198,113.0503,-0.398837,0.9796425,2.5307
74.25323,107.0743,-0.3787401,0.9798071,2.537159
74.30326,104.277,-0.3787401,0.9798071,2.537159
74.3521,102.1155,-0.3812529,0.9798071,2.537159
74.4021,98.9368,-0.3209632,0.9798071,2.537159
74.4521,97.66531,-0.2003856,0.9798071,2.5307
74.5031,92.83366,-0.1149771,0.9798071,2.537159
74.55356,90.67213,-0.05468829,0.9798071,2.537159
74.6023,113.686,-0.004447017,0.9799718,2.537159
74.65223,147.5076,0.1111068,0.9799718,2.543618
74.70222,147.5076,0.1864678,0.9799718,2.543618
74.75357,145.6003,0.2442447,0.9798071,2.537159
74.80341,146.999,0.3497501,0.9796425,2.537159
74.85193,138.7343,0.445207,0.9798071,2.543618
74.90185,134.4113,0.5883934,0.9798071,2.537159
74.95173,131.614,0.6938988,0.9799718,2.537159
75.00311,128.5624,0.7968923,0.9798071,2.543618
75.05328,119.2806,0.877277,0.9798071,2.543618
75.10158,115.5933,0.9199817,0.9798071,2.543618
75.15195,111.0159,0.9501261,0.9799718,2.543618
75.20184,108.4729,1.000367,0.9798071,2.543618
75.25309,105.6757,1.040559,0.9798071,2.537159
75.30309,103.1327,1.060656,0.9798071,2.543618
75.35172,99.69969,1.090801,0.9798071,2.537159
75.4016,97.02956,1.146065,0.9796425,2.543618
75.45158,94.61374,1.203842,0.9799718,2.543618
75.50285,91.81647,1.186258,0.9799718,2.543618
75.5529,93.34225,1.138529,0.9796425,2.543618
75.60272,124.2394,1.156113,0.9798071,2.543618
75.65272,146.2361,1.208866,0.9798071,2.537159
75.70272,140.6415,1.218914,0.9798071,2.543618
75.75272,140.3873,1.244034,0.9796425,2.537159
75.80296,140.8958,1.26413,0.9798071,2.537159
75.85172,125.2566,1.261618,0.9799718,2.537159
75.90157,124.3665,1.259107,0.9796425,2.537159
75.95172,126.9095,1.246546,0.9798071,2.537159
76.00322,122.4593,1.231474,0.9799718,2.537159
76.05309,116.9919,1.198818,0.9798071,2.537159
76.10234,112.0331,1.146065,0.9798071,2.537159
76.15209,108.2186,1.095824,0.9798071,2.5307
76.20209,106.0571,1.070704,0.9798071,2.5307
76.25343,103.2598,1.007903,0.9798071,2.537159
76.30318,101.8612,0.9501261,0.9796425,2.537159
76.35255,96.52097,0.9199817,0.9798071,2.537159
76.40237,96.01237,0.9074214,0.9796425,2.5307
76.45235,94.2323,0.8295485,0.9798071,2.5307
76.50322,90.79928,0.7240432,0.9798071,2.5307
76.55321,100.844,0.6361219,0.9798071,2.5307
76.60184,140.7687,0.5758331,0.9798071,2.5307
76.65194,146.6175,0.5080077,0.9799718,2.5307
76.70184,141.2773,0.3999904,0.9799718,2.5307
76.75267,141.913,0.2593169,0.9798071,2.5307
76.80367,139.2429,0.2115875,0.9796425,2.5307
76.85217,126.6552,0.1839559,0.9798071,2.524241
76.90217,125.0023,0.1588353,0.9798071,2.5307
76.95167,125.3837,0.126179,0.9798071,2.524241
77.00274,117.8819,0.0935218,0.9796425,2.524241
77.05367,112.796,0.04328145,0.9798071,2.524241
77.10179,112.0331,-0.02454297,0.9799718,2.517781
77.15167,107.2015,-0.135073,0.9798071,2.517781
77.20152,104.1499,-0.1702412,0.9798071,2.524241
77.25253,99.95398,-0.248115,0.9798071,2.524241
77.30354,97.79247,-0.3360354,0.9798071,2.524241
77.35208,96.64812,-0.3636679,0.9798071,2.517781
77.40196,94.86804,-0.3511085,0.9796425,2.517781
77.45248,90.41783,-0.3762282,0.9798071,2.517781
77.50343,86.47623,-0.4641495,0.9799718,2.517781
77.55334,109.9987,-0.511878,0.9798071,2.517781
77.60179,144.2017,-0.5219264,0.9796425,2.511322
77.65156,145.8546,-0.5319749,0.9798071,2.517781
77.70245,141.913,-0.5797033,0.9796425,2.511322
77.75352,143.3117,-0.6098477,0.9798071,2.511322
77.80289,141.6587,-0.6299437,0.9798071,2.511322
77.85244,129.4525,-0.642504,0.9798071,2.511322
77.90229,129.3253,-0.6274318,0.9798071,2.511322
77.95224,126.9095,-0.5897518,0.9798071,2.504864
78.00353,121.4421,-0.5344868,0.9798071,2.504864
78.05351,113.9403,-0.4641495,0.9796425,2.504864
78.10266,109.9987,-0.3862767,0.9798071,2.504864
78.15266,106.6929,-0.2908188,0.9798071,2.504864
78.20266,103.5141,-0.1526571,0.9798071,2.504864
78.25266,100.2083,0.03072114,0.9799718,2.498404
78.30379,98.55534,0.126179,0.9798071,2.504864
78.35252,94.35944,0.1839559,0.9798071,2.498404
78.40228,91.94361,0.276901,0.9799718,2.498404
78.45229,90.29069,0.4401833,0.9799718,2.498404
78.50351,86.47623,0.5682974,0.9799718,2.498404
78.55353,85.33189,0.613514,0.9798071,2.498404
78.60226,125.5108,0.653706,0.9798071,2.491945
78.65279,144.2017,0.7315797,0.9798071,2.491945
78.70266,143.9474,0.8044279,0.9798071,2.491945
78.7533,140.8958,0.8596929,0.9798071,2.491945
78.80328,139.4972,0.9049096,0.9798071,2.491945
78.85281,136.0642,0.9350539,0.9798071,2.485486
78.90248,126.0195,0.9777586,0.9798071,2.485486
78.95178,123.9851,1.030512,0.9798071,2.491945
79.00332,122.8407,1.088289,0.9796425,2.491945
79.05332,116.3562,1.151089,0.9798071,2.485486
79.10175,114.1946,1.218914,0.9798071,2.485486
79.15279,108.2186,1.256595,0.9798071,2.485486
79.20164,105.6757,1.296788,0.9796425,2.485486
79.25295,101.6069,1.33698,0.9798071,2.479027
79.30266,99.31824,1.3621,0.9798071,2.479027
79.35262,96.64812,1.389733,0.9798071,2.479027
79.40258,94.99519,1.389733,0.9798071,2.479027
79.4524,93.08795,1.409829,0.9798071,2.479027
79.50359,90.03638,1.412341,0.9798071,2.472568
79.55354,88.89205,1.342004,0.9798071,2.472568
79.60232,88.5106,1.259107,0.9798071,2.479027
79.65228,125.7652,1.20133,0.9798071,2.472568
79.70177,142.5488,1.143553,0.9798071,2.472568
79.75278,139.3701,1.093313,0.9798071,2.472568
79.80278,137.8443,1.058144,0.9798071,2.472568
79.85263,133.7755,0.9978546,0.9796425,2.466108
79.90253,125.2566,0.9752468,0.9799718,2.466108
79.9529,122.0779,0.970223,0.9798071,2.466108
80.00303,121.8235,0.9626865,0.9798071,2.466108
80.05302,117.3734,0.9476143,0.9796425,2.466108
80.10237,115.7204,0.9350539,0.9798071,2.466108
80.15231,109.8716,0.9099342,0.9798071,2.459649
80.2019,105.93,0.8797898,0.9798071,2.466108
80.25302,103.5141,0.8471326,0.9798071,2.466108
80.30302,99.57254,0.8044279,0.9799718,2.459649
80.35278,97.41101,0.7315797,0.9798071,2.459649
80.40263,94.35944,0.6461703,0.9796425,2.459649
80.45257,92.7065,0.613514,0.9799718,2.459649
80.50359,91.56216,0.5381521,0.9798071,2.45319
80.55379,88.38345,0.3623104,0.9798071,2.45319
80.60258,86.47623,0.1814431,0.9796425,2.45319
80.65258,124.8751,0.1186424,0.9798071,2.459649
80.70238,143.6931,0.08347429,0.9798071,2.45319
80.75337,140.6415,0.01564894,0.9796425,2.45319
80.80339,139.7515,-0.1049286,0.9798071,2.45319
80.85187,140.0058,-0.2054103,0.9799718,2.45319
80.90265,131.8683,-0.2380666,0.9799718,2.45319
80.95265,125.8923,-0.2732347,0.9798071,2.45319
81.00377,124.3665,-0.3033791,0.9798071,2.45319
81.05376,119.7892,-0.3259878,0.9799718,2.45319
81.10231,114.5761,-0.3460838,0.9798071,2.45319
81.15179,110.8888,-0.3737163,0.9798071,2.446731
81.20173,106.6929,-0.4038607,0.9798071,2.446731
81.25365,103.8956,-0.4113973,0.9798071,2.446731
81.30351,100.2083,-0.4139092,0.9798071,2.446731
81.35189,98.55534,-0.4440536,0.9798071,2.446731
81.40189,97.02956,-0.4942939,0.9798071,2.446731
81.45173,94.48659,-0.4641495,0.9798071,2.446731
81.50391,91.43503,-0.4013489,0.9799718,2.446731
81.55375,88.5106,-0.4013489,0.9799718,2.45319
81.60239,85.33189,-0.4340051,0.9798071,2.446731
81.65227,126.6552,-0.4390289,0.9799718,2.446731
81.70214,145.346,-0.398837,0.9799718,2.446731
81.75314,141.023,-0.3360354,0.9798071,2.446731
81.80301,139.7515,-0.2280181,0.9799718,2.440272
81.85175,140.1329,-0.06473581,0.9798071,2.440272
81.90176,134.157,0.08096241,0.9798071,2.440272
81.95289,127.6724,0.1864678,0.9798071,2.446731
82.00366,126.4009,0.2794129,0.9799718,2.440272
82.05286,120.8064,0.427623,0.9799718,2.440272
82.10227,118.6448,0.6235616,0.9798071,2.440272
82.15214,110.8888,0.7290669,0.9798071,2.440272
82.20214,107.71,0.8295485,0.9798071,2.440272
82.25301,103.7684,0.9124461,0.9798071,2.446731
82.30365,101.0983,0.9576627,0.9798071,2.440272
82.35239,98.42819,0.9978546,0.9798071,2.440272
82.40215,96.39381,1.033024,0.9798071,2.440272
82.45213,94.10515,1.075728,0.9799718,2.440272
82.50339,93.2151,1.143553,0.9799718,2.440272
82.55338,89.90925,1.183746,0.9798071,2.440272
82.60201,89.2735,1.193794,0.9798071,2.440272
82.65201,99.31824,1.198818,0.9799718,2.440272
82.70301,145.346,1.228962,0.9799718,2.440272
82.75301,143.3117,1.259107,0.9798071,2.440272
82.80402,141.4044,1.289251,0.9798071,2.440272
82.85286,138.2257,1.314372,0.9799718,2.440272
82.90227,134.6656,1.331956,0.9798071,2.440272
82.95238,130.4697,1.342004,0.9799718,2.440272
83.00288,129.1982,1.347028,0.9798071,2.440272
83.05287,125.638,1.331956,0.9798071,2.440272
83.1019,119.5349,1.304323,0.9798071,2.433812
83.15216,115.5933,1.261618,0.9798071,2.433812
83.20183,111.1431,1.208866,0.9798071,2.433812
83.25317,107.2015,1.17621,0.9798071,2.433812
83.30384,104.9128,1.120945,0.9799718,2.440272
83.35251,101.4798,1.080752,0.9799718,2.433812
83.40228,99.19109,0.9953427,0.9796425,2.433812
83.45238,97.9196,0.9476143,0.9798071,2.440272
83.50338,95.37663,0.9275183,0.9798071,2.440272
83.55325,92.7065,0.8446208,0.9798071,2.433812
83.603,88.7649,0.7391154,0.9799718,2.433812
83.653,108.3458,0.6587306,0.9799718,2.433812
83.70277,145.8546,0.6059775,0.9799718,2.433812
83.75285,144.2017,0.5281046,0.9798071,2.433812
83.80363,141.023,0.4150626,0.9798071,2.433812
83.85225,141.023,0.2668526,0.9799718,2.433812
83.90237,136.6999,0.2115875,0.9798071,2.433812
83.95236,129.7068,0.1713956,0.9798071,2.433812
84.00379,128.5624,0.146275,0.9798071,2.433812
84.0535,127.0366,0.1161306,0.9798071,2.433812
84.10237,119.4077,0.07844961,0.9798071,2.433812
84.15199,114.9575,0.03323301,0.9798071,2.433812
84.20314,110.5073,-0.05217549,0.9798071,2.427353
84.25313,106.3114,-0.155169,0.9798071,2.427353
84.30325,102.8784,-0.1853134,0.9798071,2.427353
84.35213,100.0811,-0.2531388,0.9798071,2.427353
84.40187,98.42819,-0.34106,0.9796425,2.427353
84.45262,96.52097,-0.3686926,0.9799718,2.427353
84.50341,93.85085,-0.3460838,0.9799718,2.427353
84.55325,91.18073,-0.3862767,0.9798071,2.427353
84.60286,89.65494,-0.474198,0.9798071,2.427353
84.65237,103.2598,-0.5219264,0.9798071,2.427353
84.70313,145.0918,-0.5219264,0.9799718,2.427353
84.75397,147.2533,-0.5219264,0.9798071,2.427353
84.8035,143.6931,-0.5319749,0.9798071,2.427353
84.85297,144.5831,-0.5570946,0.9798071,2.420894
84.90274,141.4044,-0.5696549,0.9799718,2.420894
84.95254,131.9954,-0.5520709,0.9798071,2.420894
85.00414,131.1054,-0.5043424,0.9798071,2.420894
85.05402,128.181,-0.4390289,0.9799718,2.427353
85.10247,120.9335,-0.3887885,0.9798071,2.420894
85.15229,116.6105,-0.305891,0.9798071,2.414435
85.20274,112.2874,-0.2028984,0.9799718,2.420894
85.25362,108.8544,-0.02203109,0.9798071,2.420894
85.30308,105.1671,0.1286909,0.9798071,2.420894
85.35297,102.6241,0.2166122,0.9798071,2.414435
85.40231,96.26666,0.3120691,0.9798071,2.414435
85.45229,94.2323,0.4426952,0.9799718,2.414435
85.50337,92.96081,0.6310981,0.9798071,2.414435
85.55389,91.94361,0.7366035,0.9798071,2.414435
85.60249,90.41783,0.7893557,0.9799718,2.414435
85.65237,86.47623,0.8220129,0.9798071,2.407976
85.70219,113.686,0.8622048,0.9798071,2.414435
85.75312,145.0918,0.9174699,0.9798071,2.407976
85.80311,144.2017,0.9425905,0.9798071,2.414435
85.85298,142.1673,0.9777586,0.9799718,2.414435
85.90298,141.7859,1.010415,0.9799718,2.407976
85.9529,136.6999,1.033024,0.9798071,2.407976
86.00384,130.0882,1.07824,0.9798071,2.401517
86.05374,128.181,1.138529,0.9799718,2.407976
86.10223,123.6036,1.211378,0.9799718,2.407976
86.15211,121.0607,1.259107,0.9799718,2.407976
86.20307,114.3218,1.309347,0.9798071,2.401517
86.25298,111.1431,1.342004,0.9798071,2.407976
86.30298,108.0915,1.359588,0.9799718,2.401517
86.35274,104.6585,1.389733,0.9798071,2.401517
86.40248,101.6069,1.407317,0.9798071,2.401517
86.45197,98.42819,1.392245,0.9798071,2.401517
86.50323,96.90242,1.352052,0.9798071,2.401517
86.55297,94.61374,1.331956,0.9798071,2.401517
86.60302,92.96081,1.281715,0.9798071,2.401517
86.65274,89.65494,1.173697,0.9799718,2.401517
86.70274,92.83366,1.060656,0.9799718,2.395057
86.75349,138.0986,1.000367,0.9799718,2.395057
86.80352,142.1673,0.9677102,0.9798071,2.395057
86.85301,143.4388,0.9375658,0.9798071,2.395057
86.90203,138.6072,0.8873255,0.9799718,2.395057
86.95206,137.3357,0.8370851,0.9799718,2.395057
87.00352,131.2325,0.8044279,0.9798071,2.395057
87.05306,128.181,0.7818201,0.9798071,2.395057
87.10327,125.0023,0.7466519,0.9798071,2.388598
87.15294,120.9335,0.7240432,0.9799718,2.388598
87.20278,115.9747,0.6863622,0.9798071,2.395057
87.254,113.1774,0.6386337,0.9798071,2.388598
87.30404,108.4729,0.5733212,0.9798071,2.388598
87.35252,104.9128,0.5130324,0.9798071,2.382139
87.4025,103.0055,0.4301348,0.9798071,2.388598
87.45252,100.3354,0.2743891,0.9799718,2.382139
87.50352,98.1739,0.1839559,0.9798071,2.382139
87.55353,94.10515,0.146275,0.9798071,2.388598
87.60252,92.32506,0.1362265,0.9798071,2.382139
87.65223,90.41783,0.04579333,0.9799718,2.388598
87.70223,88.00201,-0.1426087,0.9799718,2.388598
87.75423,111.0159,-0.2656991,0.9799718,2.382139
87.80399,142.9302,-0.305891,0.9798071,2.382139
87.85273,143.3117,-0.3586441,0.9798071,2.382139
87.90273,142.9302,-0.398837,0.9798071,2.382139
87.95236,142.9302,-0.4515892,0.9798071,2.382139
88.0029,139.6244,-0.4767098,0.9798071,2.382139
88.0525,129.9611,-0.4968058,0.9799718,2.382139
88.10223,127.4181,-0.5018305,0.9799718,2.37568
88.15344,126.1466,-0.5043424,0.9796425,2.37568
88.20322,120.2978,-0.5169027,0.9798071,2.37568
88.25298,113.9403,-0.5169027,0.9798071,2.37568
88.30285,110.1259,-0.511878,0.9798071,2.37568
88.35272,106.4386,-0.5043424,0.9798071,2.37568
88.40398,104.5313,-0.4616376,0.9798071,2.37568
88.45235,102.6241,-0.4113973,0.9798071,2.369221
88.5022,99.82683,-0.3837648,0.9799718,2.37568
88.55213,96.90242,-0.3561323,0.9798071,2.369221
88.6031,93.08795,-0.2280181,0.9798071,2.369221
88.65396,91.56216,-0.05971205,0.9798071,2.369221
88.70272,89.2735,0.06337741,0.9798071,2.369221
88.75238,86.73053,0.1186424,0.9798071,2.369221
88.80215,96.26666,0.1789312,0.9798071,2.369221
88.85256,145.7275,0.2718772,0.9798071,2.369221
88.90364,144.3289,0.3974786,0.9798071,2.362762
88.95235,142.1673,0.558249,0.9798071,2.369221
89.00247,141.913,0.6788266,0.9798071,2.362762
89.05222,137.2085,0.7617241,0.9798071,2.369221
89.10215,128.8167,0.8446208,0.9798071,2.362762
89.15321,127.1638,0.9099342,0.9798071,2.362762
89.20285,124.748,0.9576627,0.9799718,2.362762
89.25298,119.5349,1.007903,0.9798071,2.356302
89.30302,115.0847,1.045584,0.9799718,2.362762
89.35297,109.2358,1.095824,0.9798071,2.362762
89.40385,106.9472,1.148578,0.9798071,2.362762
89.45214,103.1327,1.228962,0.9798071,2.362762
89.50211,101.4798,1.269155,0.9799718,2.362762
89.55325,99.57254,1.309347,0.9798071,2.362762
89.60316,99.31824,1.321907,0.9798071,2.362762
89.65409,95.12233,1.344516,0.9798071,2.362762
89.70276,92.83366,1.359588,0.9799718,2.362762
89.7532,89.90925,1.319395,0.9799718,2.362762
89.80279,89.5278,1.249058,0.9799718,2.362762
89.85257,142.1673,1.191282,0.9798071,2.356302
89.90385,144.0746,1.143553,0.9799718,2.356302
89.95259,141.7859,1.088289,0.9798071,2.356302
90.00284,138.6072,1.040559,0.9798071,2.356302
90.05257,136.6999,0.9752468,0.9798071,2.356302
90.10322,132.1226,0.9501261,0.9798071,2.356302
90.15385,125.638,0.9400786,0.9799718,2.356302
90.20232,125.0023,0.9250064,0.9798071,2.356302
90.2525,124.6208,0.8998858,0.9799718,2.356302
90.30233,117.5005,0.8672295,0.9798071,2.356302
90.35231,113.8132,0.8295485,0.9799718,2.356302
90.40348,111.2702,0.784332,0.9798071,2.362762
90.45232,107.71,0.7340916,0.9799718,2.362762
90.5022,103.8956,0.7139947,0.9798071,2.362762
90.55248,99.95398,0.6662663,0.9798071,2.356302
90.60248,96.90242,0.5758331,0.9799718,2.356302
90.65401,95.12233,0.4678158,0.9798071,2.356302
90.7032,93.59654,0.4050142,0.9798071,2.356302
90.75327,91.94361,0.2869494,0.9798071,2.362762
90.80328,90.79928,0.1789312,0.9798071,2.356302
90.85332,89.65494,0.0935218,0.9799718,2.356302
90.90327,139.7515,0.04328145,0.9798071,2.356302
90.95332,147.3804,0.003088618,0.9798071,2.356302
91.00224,143.4388,-0.1300493,0.9798071,2.362762
91.05316,142.1673,-0.1903381,0.9798071,2.356302
91.10248,142.1673,-0.2631872,0.9798071,2.356302
91.15362,135.5556,-0.2933316,0.9798071,2.362762
91.20232,129.3253,-0.3134275,0.9799718,2.362762
91.25227,127.2909,-0.3485957,0.9799718,2.362762
91.30335,124.1122,-0.3712045,0.9799718,2.362762
91.35323,117.8819,-0.4139092,0.9799718,2.362762
91.40324,115.5933,-0.4415417,0.9798071,2.362762
91.45232,109.6173,-0.4641495,0.9798071,2.362762
91.50329,107.0743,-0.474198,0.9799718,2.356302
91.55306,104.5313,-0.4716861,0.9798071,2.356302
91.60231,101.6069,-0.4716861,0.9799718,2.356302
91.6545,98.1739,-0.4867583,0.9798071,2.362762
91.70319,97.79247,-0.5143908,0.9798071,2.356302
91.75303,94.2323,-0.491782,0.9798071,2.362762
91.80253,92.07076,-0.4113973,0.9798071,2.362762
91.85228,89.5278,-0.3913004,0.9798071,2.362762
91.90387,86.85767,-0.3938123,0.9798071,2.362762
91.95245,118.6448,-0.3837648,0.9798071,2.362762
92.00275,144.5831,-0.2908188,0.9799718,2.362762
92.05229,144.5831,-0.1652174,0.9801366,2.362762
92.10303,142.2945,-0.009470774,0.9798071,2.362762
92.15433,142.1673,0.1136187,0.9798071,2.356302
92.20322,140.0058,0.1889797,0.9799718,2.362762
92.25244,132.504,0.2618288,0.9799718,2.356302
92.30267,127.6724,0.3974786,0.9798071,2.356302
92.35258,126.528,0.6009537,0.9798071,2.362762
92.40357,122.3321,0.7114828,0.9798071,2.356302
92.4523,113.9403,0.7868438,0.9798071,2.362762
92.50227,111.7788,0.8596929,0.9799718,2.356302
92.55329,108.8544,0.9074214,0.9798071,2.356302
92.60294,106.1843,0.9501261,0.9798071,2.356302
92.65353,103.8956,0.9928309,0.9798071,2.356302
92.70239,101.2255,1.033024,0.9798071,2.356302
92.75276,97.28386,1.070704,0.9798071,2.356302
92.80307,95.88522,1.113408,0.9798071,2.356302
92.85226,92.57936,1.186258,0.9798071,2.356302
92.90424,91.56216,1.241523,0.9798071,2.356302
92.95297,87.87486,1.239011,0.9798071,2.356302
93.00311,89.5278,1.228962,0.9799718,2.356302
93.05283,109.1087,1.239011,0.9798071,2.356302
93.10257,143.8203,1.261618,0.9798071,2.356302
93.15422,141.7859,1.276691,0.9798071,2.349844
93.20283,138.2257,1.299299,0.9798071,2.356302
93.25282,138.6072,1.306835,0.9799718,2.356302
93.30279,134.0298,1.301811,0.9798071,2.356302
93.35342,128.8167,1.294275,0.9798071,2.356302
93.40334,126.6552,1.284227,0.9798071,2.356302
93.45334,121.4421,1.266643,0.9798071,2.349844
93.50291,118.5177,1.233986,0.9798071,2.356302
93.5527,113.0503,1.198818,0.9798071,2.356302
93.60282,110.5073,1.153601,0.9798071,2.349844
93.65395,106.4386,1.090801,0.9798071,2.349844
93.70318,104.277,1.050608,0.9798071,2.356302
93.75257,100.7169,1.005391,0.9799718,2.349844
93.80256,99.31824,0.970223,0.9798071,2.349844
93.85244,98.80965,0.9250064,0.9799718,2.349844
93.90369,94.74089,0.8873255,0.9798071,2.356302
93.95242,92.32506,0.877277,0.9798071,2.349844
94.00256,90.29069,0.7994041,0.9798071,2.349844
94.05257,88.00201,0.6863622,0.9798071,2.349844
94.10256,97.53816,0.5858815,0.9798071,2.349844
94.15419,143.4388,0.4929355,0.9798071,2.349844
94.20294,144.5831,0.352262,0.9798071,2.349844
94.25294,139.8786,0.2341963,0.9798071,2.349844
94.30294,139.8786,0.1688837,0.9798071,2.349844
94.35269,138.6072,0.1111068,0.9798071,2.343384
94.40394,129.5796,0.07342585,0.9798071,2.343384
94.45269,126.9095,0.04579333,0.9798071,2.343384
94.50244,126.0195,0.005601424,0.9796425,2.343384
94.55332,121.0607,-0.06976049,0.9798071,2.343384
94.60319,115.8476,-0.1400968,0.9799718,2.343384
94.65449,112.4145,-0.1777778,0.9798071,2.343384
94.70293,109.363,-0.2079221,0.9798071,2.343384
94.75272,106.1843,-0.2330428,0.9798071,2.343384
94.8027,103.8956,-0.2456022,0.9798071,2.343384
94.85242,100.7169,-0.2707228,0.9798071,2.343384
94.90443,98.80965,-0.3134275,0.9798071,2.336925
94.95351,94.61374,-0.3485957,0.9798071,2.343384
95.00246,92.96081,-0.3284997,0.9796425,2.343384
95.05318,91.94361,-0.3284997,0.9798071,2.343384
95.10294,90.29069,-0.3862767,0.9798071,2.336925
95.15348,89.14634,-0.474198,0.9798071,2.336925
95.20344,135.047,-0.4968058,0.9798071,2.343384
95.25306,146.999,-0.4993186,0.9798071,2.336925
95.3027,143.0574,-0.511878,0.9799718,2.336925
95.35281,142.1673,-0.5269502,0.9798071,2.336925
95.40393,144.2017,-0.5269502,0.9798071,2.336925
95.45268,136.9542,-0.5169027,0.9798071,2.336925
95.5024,132.7583,-0.5093661,0.9796425,2.336925
95.55356,131.614,-0.4767098,0.9798071,2.336925
95.60356,125.3837,-0.4415417,0.9798071,2.336925
95.65355,123.095,-0.4289814,0.9798071,2.336925
95.70354,118.2634,-0.3938123,0.9798071,2.336925
95.75315,113.1774,-0.3385482,0.9799718,2.336925
95.8025,110.7616,-0.2531388,0.9796425,2.336925
95.85244,106.6929,-0.1149771,0.9798071,2.336925
95.90368,103.1327,0.07342585,0.9798071,2.330466
95.95303,99.57254,0.1437631,0.9798071,2.336925
96.00284,97.53816,0.2065638,0.9798071,2.336925
96.05259,94.61374,0.3271413,0.9798071,2.330466
96.10318,93.08795,0.5607609,0.9798071,2.330466
96.15376,91.94361,0.6310981,0.9798071,2.330466
96.20243,88.5106,0.6662663,0.9799718,2.330466
96.25318,110.7616,0.7039472,0.9798071,2.330466
96.3029,144.3289,0.7742835,0.9799718,2.330466
96.35265,143.8203,0.8370851,0.9798071,2.330466
96.4038,142.1673,0.8998858,0.9798071,2.330466
96.4526,142.5488,0.9375658,0.9798071,2.330466
96.50248,140.6415,0.9677102,0.9799718,2.330466
96.55245,131.9954,1.017951,0.9796425,2.324007
96.60262,131.4868,1.06568,0.9798071,2.324007
96.65366,129.8339,1.141041,0.9798071,2.330466
96.70361,123.3493,1.218914,0.9799718,2.324007
96.75318,120.1706,1.266643,0.9798071,2.330466
96.80305,114.5761,1.314372,0.9798071,2.324007
96.85258,111.5245,1.33698,0.9798071,2.324007
96.9038,108.7272,1.357076,0.9798071,2.324007
96.95351,105.8028,1.37466,0.9799718,2.324007
97.0028,102.3698,1.387221,0.9798071,2.330466
97.0528,100.0811,1.382196,0.9798071,2.324007
97.1028,98.42819,1.404805,0.9798071,2.324007
97.15366,96.64812,1.384709,0.9798071,2.324007
97.2033,94.48659,1.309347,0.9798071,2.324007
97.2533,99.06393,1.208866,0.9798071,2.330466
97.3028,141.2773,1.143553,0.9798071,2.324007
97.35292,146.8718,1.085776,0.9798071,2.330466
97.40392,143.6931,1.017951,0.9798071,2.330466
97.45365,141.023,0.970223,0.9798071,2.330466
97.50359,142.4216,0.9400786,0.9798071,2.330466
97.55357,135.1741,0.9049096,0.9798071,2.330466
97.60332,130.5968,0.8823017,0.9798071,2.330466
97.65456,130.0882,0.8571811,0.9796425,2.330466
97.70329,128.3081,0.8270367,0.9798071,2.330466
97.75355,122.9679,0.7968923,0.9799718,2.336925
97.80342,120.9335,0.7441391,0.9798071,2.336925
97.85309,114.1946,0.7039472,0.9796425,2.336925
97.90421,111.1431,0.6763147,0.9799718,2.336925
97.95291,108.0915,0.6110012,0.9798071,2.343384
98.00296,106.3114,0.5029839,0.9796425,2.343384
98.05296,103.2598,0.3447254,0.9798071,2.349844
98.10294,102.2427,0.2995088,0.9798071,2.356302
98.15429,100.3354,0.2191241,0.9798071,2.349844
98.20292,96.77527,0.1211543,0.9798071,2.356302
98.2533,103.7684,0.01564894,0.9798071,2.356302
98.30329,133.7755,-0.1124643,0.9796425,2.362762
98.35295,152.3392,-0.1752659,0.9796425,2.362762
98.40376,149.4148,-0.2330428,0.9798071,2.369221
98.45254,150.5591,-0.2782594,0.9798071,2.369221
98.50254,150.3048,-0.3360354,0.9798071,2.37568
98.55318,141.7859,-0.3686926,0.9798071,2.37568
98.60328,138.48,-0.3787401,0.9796425,2.382139
98.6544,137.7171,-0.3887885,0.9798071,2.382139
98.70346,128.8167,-0.4139092,0.9796425,2.388598
98.75358,122.3321,-0.4390289,0.9798071,2.388598
98.80323,121.6964,-0.4490773,0.9798071,2.395057
98.85304,118.1362,-0.4641495,0.9798071,2.395057
98.90429,112.9231,-0.4541011,0.9798071,2.401517
98.95303,109.7444,-0.4591258,0.9798071,2.401517
99.00271,106.5657,-0.4817336,0.9796425,2.401517
99.05376,104.4042,-0.511878,0.9798071,2.407976
99.10374,102.7513,-0.4440536,0.9798071,2.407976
99.15376,100.0811,-0.3913004,0.9798071,2.414435
99.20369,96.39381,-0.3938123,0.9796425,2.414435
99.25341,97.02956,-0.4063726,0.9798071,2.420894
99.30341,131.3597,-0.3762282,0.9799718,2.427353
99.35331,152.4664,-0.285795,0.9798071,2.427353
99.40429,149.4148,-0.1878253,0.9796425,2.427353
99.45303,153.4836,-0.05468829,0.9796425,2.433812
99.50376,152.0849,0.07593773,0.9798071,2.433812
99.55377,143.3117,0.163859,0.9796425,2.433812
99.60329,137.9714,0.2442447,0.9796425,2.433812
99.65441,135.6828,0.3648223,0.9798071,2.440272
99.70329,131.7411,0.5532243,0.9798071,2.440272
99.75329,126.0195,0.6687781,0.9798071,2.440272
99.80272,124.3665,0.7516757,0.9798071,2.440272
99.85267,118.8991,0.8295485,0.9798071,2.446731
99.90403,115.7204,0.8923492,0.9799718,2.446731
99.9528,113.9403,0.9375658,0.9798071,2.446731
100.0037,112.1602,0.9802705,0.9798071,2.446731
100.053,106.0571,1.01544,0.9798071,2.446731
100.1034,103.0055,1.043072,0.9798071,2.45319
100.1547,100.3354,1.095824,0.9796425,2.45319
100.2034,99.19109,1.171185,0.9796425,2.45319
100.2534,97.66531,1.218914,0.9798071,2.45319
100.3034,95.75809,1.208866,0.9798071,2.45319
100.3534,104.9128,1.216402,0.9798071,2.45319
100.4047,142.8031,1.241523,0.9798071,2.459649
100.4534,149.2876,1.269155,0.9798071,2.459649
100.5034,146.6175,1.289251,0.9798071,2.45319
100.5532,150.432,1.31186,0.9798071,2.459649
100.6031,145.4732,1.319395,0.9798071,2.459649
100.6542,137.9714,1.321907,0.9798071,2.459649
100.7029,136.4456,1.329444,0.9798071,2.459649
100.7539,134.0298,1.32442,0.9798071,2.459649
100.8036,130.9782,1.306835,0.9798071,2.459649
100.8537,124.2394,1.274179,0.9798071,2.459649
100.9045,119.9163,1.223938,0.9798071,2.459649
100.953,118.5177,1.183746,0.9798071,2.459649
101.0032,115.4661,1.105873,0.9796425,2.459649
101.0535,109.1087,1.075728,0.9798071,2.466108
101.1034,105.93,1.030512,0.9799718,2.466108
101.1545,103.5141,0.9852952,0.9798071,2.459649
101.2033,102.497,0.9350539,0.9798071,2.459649
101.2528,100.0811,0.9074214,0.9796425,2.466108
101.3028,98.6825,0.8848136,0.9799718,2.459649
101.3539,96.26666,0.7968923,0.9796425,2.459649
101.4038,94.74089,0.6938988,0.9798071,2.466108
101.4534,122.5864,0.5934172,0.9798071,2.466108
101.5034,149.2876,0.5080077,0.9798071,2.459649
101.5534,147.6347,0.3824064,0.9798071,2.459649
101.6031,147.889,0.2668526,0.9798071,2.459649
101.6543,150.9406,0.2040519,0.9796425,2.459649
101.703,145.4732,0.1487868,0.9798071,2.459649
101.7528,138.2257,0.1111068,0.9798071,2.459649
101.8037,136.8271,0.07844961,0.9796425,2.459649
101.8529,134.6656,0.04830521,0.9796425,2.459649
101.9041,127.1638,0.005601424,0.9799718,2.459649
101.9529,122.205,-0.09236833,0.9799718,2.459649
102.0031,118.2634,-0.1652174,0.9798071,2.459649
102.0529,116.1019,-0.2229944,0.9798071,2.459649
102.1037,112.0331,-0.2807713,0.9799718,2.45319
102.1549,108.4729,-0.3259878,0.9798071,2.459649
102.2037,105.0399,-0.3511085,0.9798071,2.459649
102.2537,102.3698,-0.3762282,0.9798071,2.459649
102.3034,99.06393,-0.4440536,0.9798071,2.45319
102.3531,96.64812,-0.5043424,0.9798071,2.459649
102.4044,94.99519,-0.4942939,0.9798071,2.45319
102.4528,94.61374,-0.4767098,0.9796425,2.45319
102.5032,91.18073,-0.5219264,0.9796425,2.45319
102.5532,88.7649,-0.622408,0.9798071,2.45319
102.6032,117.119,-0.6626009,0.9798071,2.45319
102.6544,145.8546,-0.6525525,0.9798071,2.45319
102.7032,147.889,-0.6575762,0.9798071,2.45319
102.7532,148.5248,-0.6676247,0.9798071,2.446731
102.8032,151.8306,-0.6550643,0.9796425,2.446731
102.853,149.2876,-0.6274318,0.9796425,2.45319
102.9042,138.3529,-0.5696549,0.9799718,2.446731
102.9529,133.6484,-0.4541011,0.9798071,2.446731
103.0032,132.1226,-0.3284997,0.9799718,2.446731
103.0529,125.3837,-0.1853134,0.9796425,2.446731
103.1036,122.5864,-0.02203109,0.9798071,2.446731
103.1549,118.6448,0.1136187,0.9798071,2.446731
103.2031,113.686,0.1940034,0.9796425,2.446731
103.253,109.8716,0.2618288,0.9798071,2.440272
103.3029,106.1843,0.3748698,0.9798071,2.440272
103.3529,103.5141,0.5557371,0.9796425,2.446731
103.4041,100.3354,0.7014344,0.9798071,2.440272
103.4539,97.9196,0.7818201,0.9798071,2.440272
103.5039,96.64812,0.8370851,0.9799718,2.440272
103.5536,95.12233,0.9124461,0.9798071,2.440272
103.6029,93.2151,0.9626865,0.9798071,2.440272
103.6539,89.14634,0.9878071,0.9798071,2.440272
103.7039,89.2735,0.9953427,0.9798071,2.440272
103.7539,105.4214,1.010415,0.9798071,2.433812
103.8038,141.2773,1.055632,0.9798071,2.433812
103.8531,144.2017,1.090801,0.9798071,2.433812
103.9044,142.2945,1.136017,0.9799718,2.433812
103.9531,145.7275,1.17621,0.9798071,2.433812
104.0034,141.5316,1.239011,0.9796425,2.427353
104.0528,134.9198,1.286739,0.9796425,2.433812
104.1037,132.504,1.329444,0.9798071,2.427353
104.1548,128.5624,1.367124,0.9798071,2.433812
104.2034,123.6036,1.399781,0.9798071,2.427353
104.2532,120.0435,1.412341,0.9796425,2.433812
104.3036,115.339,1.422389,0.9799718,2.427353
104.3535,111.906,1.424901,0.9798071,2.427353
104.4048,108.8544,1.412341,0.9799718,2.433812
104.454,107.0743,1.397268,0.9798071,2.427353
104.5038,104.6585,1.372149,0.9799718,2.427353
104.5541,101.9884,1.344516,0.9798071,2.427353
104.6041,99.31824,1.284227,0.9798071,2.420894
104.654,98.55534,1.241523,0.9798071,2.420894
104.7038,94.61374,1.231474,0.9798071,2.420894
104.7537,92.45221,1.148578,0.9798071,2.420894
104.8036,89.0192,1.063168,0.9798071,2.420894
104.8531,100.4626,0.9852952,0.9798071,2.420894
104.9039,141.1501,0.970223,0.9798071,2.420894
104.9537,143.0574,0.9400786,0.9798071,2.414435
105.0038,140.3873,0.8973739,0.9796425,2.420894
105.0535,141.5316,0.8295485,0.9796425,2.414435
105.1034,140.6415,0.7943804,0.9798071,2.414435
105.1547,131.7411,0.7692598,0.9798071,2.414435
105.2032,127.7995,0.7516757,0.9796425,2.414435
105.2529,128.181,0.7366035,0.9796425,2.414435
105.3039,122.205,0.7190194,0.9798071,2.414435
105.3539,118.6448,0.6788266,0.9799718,2.414435
105.4039,115.339,0.6386337,0.9799718,2.407976
105.4539,112.796,0.6009537,0.9798071,2.414435
105.5034,107.71,0.558249,0.9798071,2.407976
105.5531,104.1499,0.4954483,0.9798071,2.407976
105.604,101.6069,0.4125508,0.9798071,2.407976
105.6539,99.06393,0.2995088,0.9798071,2.407976
105.7039,96.26666,0.2266597,0.9798071,2.407976
105.7539,93.59654,0.1940034,0.9798071,2.407976
105.8039,93.46941,0.1864678,0.9798071,2.407976
105.8536,91.30788,0.1362265,0.9798071,2.401517
105.9045,89.65494,0.03323301,0.9798071,2.401517
105.9531,103.1327,-0.1275365,0.9798071,2.401517
106.0034,142.8031,-0.1702412,0.9796425,2.401517
106.0534,146.4904,-0.2028984,0.9799718,2.401517
106.1032,143.4388,-0.2606744,0.9796425,2.401517
106.1542,144.456,-0.305891,0.9798071,2.401517
106.2032,145.4732,-0.3435719,0.9798071,2.401517
106.2535,135.1741,-0.3812529,0.9798071,2.395057
106.3034,132.1226,-0.3887885,0.9799718,2.401517
106.354,131.2325,-0.4013489,0.9798071,2.401517
106.4041,125.7652,-0.4264695,0.9798071,2.395057
106.4532,120.2978,-0.4314933,0.9798071,2.395057
106.504,116.6105,-0.4340051,0.9799718,2.401517
106.554,112.6688,-0.4214448,0.9798071,2.401517
106.603,109.7444,-0.3862767,0.9796425,2.395057
106.6542,107.2015,-0.3335235,0.9798071,2.395057
106.703,103.8956,-0.2682109,0.9796425,2.395057
106.7537,100.0811,-0.2255062,0.9798071,2.395057
106.8037,98.1739,-0.155169,0.9798071,2.388598
106.8537,96.77527,0.01062518,0.9798071,2.388598
106.9048,94.61374,0.1739075,0.9798071,2.395057
106.9534,91.18073,0.2266597,0.9798071,2.395057
107.0037,89.2735,0.2693644,0.9799718,2.388598
107.0537,100.844,0.3070454,0.9798071,2.388598
107.1038,142.9302,0.4150626,0.9799718,2.388598
107.1546,144.0746,0.5532243,0.9798071,2.395057
107.2031,143.566,0.6461703,0.9798071,2.388598
107.2532,146.3632,0.7240432,0.9798071,2.388598
107.3032,144.3289,0.784332,0.9798071,2.388598
107.3532,137.0814,0.8446208,0.9798071,2.388598
107.4044,134.157,0.9199817,0.9798071,2.388598
107.4537,132.504,0.9677102,0.9798071,2.388598
107.5038,124.6208,1.010415,0.9798071,2.382139
107.5537,119.5349,1.05312,0.9798071,2.388598
107.6033,115.8476,1.105873,0.9796425,2.382139
107.6546,111.2702,1.143553,0.9798071,2.388598
107.7033,108.9815,1.20133,0.9798071,2.382139
107.753,106.0571,1.259107,0.9799718,2.382139
107.8039,105.8028,1.296788,0.9798071,2.382139
107.8536,101.4798,1.32442,0.9798071,2.382139
107.9044,98.1739,1.339492,0.9798071,2.382139
107.9538,96.26666,1.372149,0.9798071,2.382139
108.0039,94.35944,1.402293,0.9798071,2.382139
108.0539,91.56216,1.379684,0.9798071,2.382139
108.104,90.41783,1.339492,0.9798071,2.388598
108.154,112.6688,1.301811,0.9798071,2.382139
108.2034,143.9474,1.276691,0.9796425,2.382139
108.2533,142.8031,1.228962,0.9798071,2.382139
108.3032,139.7515,1.183746,0.9798071,2.382139
108.354,141.7859,1.11592,0.9798071,2.382139
108.4044,137.0814,1.083264,0.9799718,2.382139
108.4537,132.1226,1.058144,0.9798071,2.382139
108.5036,131.3597,1.050608,0.9799718,2.382139
108.5536,127.4181,1.035536,0.9798071,2.382139
108.6031,122.4593,1.022975,0.9798071,2.382139
108.6541,117.7548,1.000367,0.9799718,2.382139
108.7037,114.9575,0.9777586,0.9798071,2.382139
108.7535,109.9987,0.9601746,0.9796425,2.37568
108.8033,108.6001,0.9375658,0.9796425,2.37568
108.8533,106.1843,0.9199817,0.9798071,2.382139
108.9043,102.3698,0.8747652,0.9799718,2.382139
108.9531,98.9368,0.8069407,0.9798071,2.382139
109.0033,97.02956,0.764236,0.9798071,2.37568
109.0533,94.99519,0.7466519,0.9796425,2.382139
109.1033,92.32506,0.6813384,0.9798071,2.382139
109.1551,90.29069,0.5482005,0.9798071,2.382139
109.2031,110.253,0.389942,0.9796425,2.37568
109.2537,143.566,0.2869494,0.9798071,2.37568
109.3033,146.6175,0.2442447,0.9798071,2.37568
109.3541,143.9474,0.1889797,0.9799718,2.37568
109.4043,145.346,0.1437631,0.9798071,2.37568
109.4543,142.8031,0.0935218,0.9798071,2.37568
109.5041,134.2841,0.05081802,0.9798071,2.37568
109.5537,133.5212,0.03072114,0.9798071,2.382139
109.6036,131.3597,-0.004447017,0.9796425,2.382139
109.6544,121.9507,-0.079808,0.9799718,2.382139
109.7031,116.7376,-0.1375849,0.9798071,2.37568
109.7542,113.5589,-0.1828015,0.9798071,2.382139
109.8031,111.906,-0.2405784,0.9798071,2.37568
109.8541,108.0915,-0.3008672,0.9798071,2.382139
109.9041,106.0571,-0.3109156,0.9799718,2.37568
109.9535,102.497,-0.3561323,0.9798071,2.37568
110.0034,101.2255,-0.4289814,0.9796425,2.37568
110.0534,97.66531,-0.4566139,0.9798071,2.37568
110.1034,96.01237,-0.4390289,0.9799718,2.382139
110.1544,93.2151,-0.4541011,0.9799718,2.382139
110.204,92.32506,-0.5169027,0.9798071,2.37568
110.254,91.94361,-0.5972874,0.9798071,2.37568
110.3039,130.0882,-0.6198962,0.9799718,2.37568
110.3534,146.7447,-0.6148715,0.9798071,2.37568
110.4051,145.7275,-0.622408,0.9798071,2.37568
110.4539,148.3976,-0.6173834,0.9796425,2.382139
110.5039,146.6175,-0.604824,0.9798071,2.369221
110.5539,138.7343,-0.5822152,0.9798071,2.37568
110.6039,131.9954,-0.511878,0.9798071,2.37568
110.6551,131.4868,-0.4038607,0.9798071,2.37568
110.7034,130.8511,-0.2883069,0.9799718,2.37568
110.7544,122.9679,-0.135073,0.9798071,2.37568
110.804,119.9163,0.03072114,0.9799718,2.37568
110.8536,114.3218,0.163859,0.9798071,2.369221
110.9048,111.2702,0.2442447,0.9798071,2.37568
110.9544,106.1843,0.3422135,0.9799718,2.37568
111.0044,102.7513,0.5180562,0.989525,2.37568
111.0541,101.3526,0.6738028,0.9896896,2.369221
111.1034,98.1739,0.7391154,0.9898543,2.369221
111.1546,95.88522,0.8169882,0.9898543,2.37568
111.2031,92.32506,0.9023977,0.9896896,2.369221
111.2541,90.92643,0.9501261,0.9896896,2.37568
111.3038,90.79928,0.9752468,0.9898543,2.369221
111.3536,93.85085,0.9852952,0.9896896,2.369221
111.4047,138.2257,1.017951,0.9898543,2.369221
111.4542,144.7103,1.070704,0.9896896,2.369221
111.5042,142.6759,1.098336,0.9898543,2.362762
111.5541,142.9302,1.146065,0.9898543,2.369221
111.604,144.9646,1.198818,0.9898543,2.369221
111.6551,135.3013,1.249058,0.9898543,2.369221
111.7038,130.724,1.294275,0.9900191,2.369221
111.7538,129.1982,1.33698,0.9896896,2.369221
111.8036,126.528,1.367124,0.9896896,2.369221
111.8533,119.9163,1.397268,0.9898543,2.369221
111.9046,115.7204,1.409829,0.9898543,2.369221
111.9532,112.4145,1.429926,0.9898543,2.369221
112.0044,110.5073,1.439973,0.9798071,2.369221
112.0537,108.0915,1.444998,0.9799718,2.362762
112.1032,106.5657,1.442485,0.9798071,2.362762
112.1546,101.8612,1.414853,0.9798071,2.369221
112.204,100.7169,1.367124,0.9799718,2.362762
112.2536,97.79247,1.34954,0.9798071,2.362762
112.3034,95.12233,1.334468,0.9798071,2.362762
112.3542,93.59654,1.259107,0.9798071,2.369221
112.4054,90.16354,1.151089,0.9799718,2.362762
112.4541,94.35944,1.090801,0.9798071,2.362762
112.504,140.6415,1.040559,0.9799718,2.362762
112.554,143.6931,1.002879,0.9798071,2.362762
112.6037,141.4044,0.9777586,0.9798071,2.362762
112.6546,142.1673,0.9375658,0.9798071,2.362762
112.7032,140.3873,0.8948621,0.9798071,2.362762
112.7544,132.6312,0.8471326,0.9799718,2.362762
112.8037,131.3597,0.8270367,0.9798071,2.362762
112.8536,129.8339,0.8144764,0.9798071,2.356302
112.9048,121.5692,0.7868438,0.9799718,2.356302
112.9535,116.229,0.7617241,0.9798071,2.356302
113.0035,112.2874,0.7366035,0.9798071,2.356302
113.0535,110.1259,0.7039472,0.9798071,2.356302
113.1036,107.2015,0.67129,0.9798071,2.356302
113.1548,103.8956,0.651194,0.9798071,2.356302
113.2033,101.7341,0.5984418,0.9798071,2.356302
113.2545,96.77527,0.5080077,0.9798071,2.356302
113.3042,94.99519,0.445207,0.9798071,2.349844
113.354,93.978,0.4401833,0.9798071,2.356302
113.405,92.45221,0.3120691,0.9799718,2.349844
113.4543,90.16354,0.2241478,0.9798071,2.356302
113.5043,107.4557,0.1588353,0.9799718,2.349844
113.5543,143.8203,0.1437631,0.9798071,2.349844
113.6042,146.4904,0.1010584,0.9798071,2.349844
113.6553,144.5831,0.04328145,0.9798071,2.349844
113.7041,146.999,-0.079808,0.9799718,2.349844
113.7541,145.6003,-0.1526571,0.9798071,2.349844
113.8051,134.6656,-0.1828015,0.9798071,2.349844
113.8536,132.1226,-0.1953618,0.9798071,2.349844
113.9049,129.9611,-0.2280181,0.9799718,2.349844
113.9534,124.4937,-0.2456022,0.9798071,2.349844
114.0037,121.0607,-0.2732347,0.9798071,2.349844
114.0549,114.3218,-0.2983553,0.9798071,2.343384
114.1037,113.0503,-0.3310116,0.9799718,2.343384
114.1549,108.9815,-0.3335235,0.9798071,2.349844
114.2036,105.6757,-0.3310116,0.9796425,2.343384
114.2533,101.4798,-0.323476,0.9798071,2.343384
114.3047,99.31824,-0.3284997,0.9798071,2.343384
114.3534,96.64812,-0.3284997,0.9798071,2.343384
114.4047,94.61374,-0.2606744,0.9799718,2.343384
114.4536,92.57936,-0.1702412,0.9798071,2.343384
114.504,90.67213,-0.1476334,0.9799718,2.343384
114.5552,89.90925,-0.1451215,0.9799718,2.343384
114.6037,109.6173,-0.09488021,0.9798071,2.343384
114.6546,147.1261,0.04076958,0.9799718,2.343384
114.7043,145.9818,0.1387393,0.9798071,2.343384
114.7543,143.0574,0.2040519,0.9799718,2.343384
114.8052,146.999,0.2718772,0.9799718,2.343384
114.8536,144.5831,0.3723579,0.9798071,2.336925
114.9047,132.3769,0.5130324,0.9799718,2.336925
114.9534,132.3769,0.688875,0.9798071,2.336925
115.0033,127.4181,0.7893557,0.9798071,2.336925
115.0543,125.638,0.8697414,0.9799718,2.336925
115.1043,120.4249,0.9400786,0.9798071,2.336925
115.1543,116.4833,0.9777586,0.9798071,2.336925
115.2042,113.8132,1.007903,0.9798071,2.336925
115.2538,109.2358,1.050608,0.9798071,2.336925
115.3051,106.6929,1.093313,0.9798071,2.330466
115.3538,102.3698,1.138529,0.9798071,2.336925
115.4051,98.80965,1.198818,0.9798071,2.330466
115.4536,95.88522,1.239011,0.9799718,2.330466
115.5036,94.10515,1.291763,0.9799718,2.330466
115.5547,93.2151,1.334468,0.9799718,2.330466
115.6045,91.94361,1.334468,0.9798071,2.330466
115.6545,89.78209,1.319395,0.9798071,2.330466
115.7035,122.9679,1.316884,0.9799718,2.330466
115.7542,146.4904,1.326932,0.9799718,2.330466
115.8053,143.8203,1.329444,0.9799718,2.330466
115.8538,142.2945,1.334468,0.9798071,2.324007
115.9047,143.8203,1.334468,0.9798071,2.330466
115.9539,141.023,1.316884,0.9798071,2.330466
116.0041,133.5212,1.301811,0.9798071,2.324007
116.0599,131.2325,1.296788,0.9798071,2.330466
116.1036,130.3425,1.291763,0.9799718,2.324007
116.1546,124.6208,1.266643,0.9799718,2.330466
116.2046,118.1362,1.223938,0.9798071,2.324007
116.2542,115.9747,1.178722,0.9798071,2.324007
116.3051,111.906,1.110897,0.9799718,2.330466
116.3534,108.9815,1.085776,0.9799718,2.324007
116.4044,106.1843,1.045584,0.9799718,2.330466
116.4538,101.9884,1.005391,0.9798071,2.324007
116.5036,99.06393,0.9651983,0.9799718,2.324007
116.5546,98.04675,0.9224936,0.9798071,2.324007
116.6043,95.24948,0.9023977,0.9799718,2.324007
116.6552,93.72369,0.8546692,0.9798071,2.324007
116.7034,90.67213,0.764236,0.9799718,2.317548
116.7534,91.56216,0.6738028,0.9799718,2.317548
116.8046,93.72369,0.6009537,0.9799718,2.324007
116.8543,145.8546,0.5406649,0.9798071,2.324007
116.9053,143.9474,0.4326467,0.9798071,2.317548
116.9539,144.456,0.3120691,0.9798071,2.317548
117.0041,145.7275,0.2442447,0.9798071,2.324007
117.0552,138.48,0.20154,0.9798071,2.317548
117.1036,134.2841,0.1789312,0.9799718,2.317548
117.1549,132.1226,0.163859,0.9798071,2.317548
117.2036,130.8511,0.1512987,0.9798071,2.317548
117.2544,122.5864,0.1312028,0.9798071,2.317548
117.3055,118.772,0.09854649,0.9798071,2.317548
117.3543,116.229,0.06086553,0.9799718,2.317548
117.4055,113.3046,0.0005767399,0.9798071,2.317548
117.4541,110.253,-0.1200008,0.9798071,2.317548
117.5041,106.4386,-0.1476334,0.9799718,2.311089
117.5553,104.1499,-0.1853134,0.9798071,2.311089
117.604,101.8612,-0.2531388,0.9799718,2.317548
117.6544,98.6825,-0.3008672,0.9799718,2.311089
117.7041,96.64812,-0.285795,0.9798071,2.311089
117.754,95.50377,-0.2958435,0.9799718,2.311089
117.8053,92.19792,-0.3686926,0.9798071,2.311089
117.854,89.14634,-0.4591258,0.9798071,2.311089
117.9047,131.614,-0.4767098,0.9799718,2.311089
117.954,148.5248,-0.4817336,0.9798071,2.311089
118.0046,147.1261,-0.5018305,0.9799718,2.311089
118.0546,147.7619,-0.5068542,0.9798071,2.311089
118.1043,148.2705,-0.5068542,0.9799718,2.311089
118.1556,138.2257,-0.5093661,0.9798071,2.311089
118.2043,134.157,-0.4968058,0.9798071,2.311089
118.2543,134.2841,-0.4490773,0.9798071,2.311089
118.3053,128.5624,-0.3887885,0.9798071,2.304629
118.3541,123.4765,-0.3435719,0.9799718,2.304629
118.4053,118.772,-0.248115,0.9798071,2.304629
118.4541,115.8476,-0.117489,0.9798071,2.304629
118.5039,113.4317,0.02569738,0.9798071,2.304629
118.5551,108.9815,0.1337146,0.9799718,2.304629
118.6038,104.6585,0.2141003,0.9798071,2.304629
118.6548,102.1155,0.3020216,0.9798071,2.304629
118.7041,99.57254,0.4401833,0.9798071,2.304629
118.754,96.77527,0.5758331,0.9798071,2.304629
118.8053,95.63092,0.6863622,0.9798071,2.304629
118.8539,93.85085,0.7994041,0.9798071,2.304629
118.905,91.43503,0.8471326,0.9798071,2.304629
118.9535,90.16354,0.8722533,0.9799718,2.304629
119.0038,95.75809,0.8923492,0.9798071,2.304629
119.055,138.8615,0.9375658,0.9799718,2.304629
119.1045,148.1433,0.9752468,0.9798071,2.304629
119.1555,144.5831,0.9953427,0.9798071,2.304629
119.2035,147.3804,1.033024,0.9799718,2.304629
119.2538,146.999,1.070704,0.9798071,2.304629
119.3047,135.3013,1.100848,0.9798071,2.304629
119.3544,133.3941,1.146065,0.9798071,2.304629
119.4055,131.614,1.228962,0.9798071,2.304629
119.4543,129.7068,1.276691,0.9798071,2.304629
119.5042,122.9679,1.306835,0.9799718,2.304629
119.555,119.1534,1.33698,0.9798071,2.304629
119.6038,115.7204,1.354565,0.9798071,2.304629
119.6549,112.2874,1.387221,0.9798071,2.304629
119.7045,110.7616,1.402293,0.9898543,2.304629
119.7539,107.71,1.419877,0.9898543,2.304629
119.8052,106.9472,1.427413,0.9898543,2.304629
119.8547,100.4626,1.397268,0.9898543,2.311089
119.9057,98.55534,1.364612,0.9898543,2.311089
119.9537,98.04675,1.354565,0.9898543,2.311089
120.0047,95.88522,1.304323,0.9900191,2.311089
120.0604,91.68932,1.203842,0.9896896,2.311089
120.104,98.1739,1.100848,0.9898543,2.311089
120.1557,138.8615,1.068192,0.9898543,2.311089
120.2043,145.8546,1.010415,0.9898543,2.311089
120.2543,142.9302,0.970223,0.9898543,2.311089
120.305,143.566,0.9451024,0.9898543,2.311089
120.3547,142.8031,0.9074214,0.9898543,2.311089
120.4048,132.3769,0.8747652,0.9900191,2.311089
120.4544,131.1054,0.8521573,0.9898543,2.317548
120.5043,130.8511,0.8295485,0.9898543,2.311089
120.555,126.9095,0.8169882,0.9898543,2.311089
120.6037,122.3321,0.8069407,0.9898543,2.317548
120.6548,117.6276,0.7692598,0.9896896,2.324007
120.7045,113.9403,0.726555,0.9799718,2.317548
120.7547,110.7616,0.708971,0.9798071,2.311089
120.8046,108.4729,0.6788266,0.9798071,2.317548
120.8545,105.0399,0.651194,0.9798071,2.317548
120.9058,99.82683,0.5883934,0.9798071,2.317548
120.9543,97.66531,0.4703277,0.9798071,2.317548
121.0046,96.01237,0.3572857,0.9798071,2.317548
121.0555,95.88522,0.3397017,0.9798071,2.317548
121.1041,94.61374,0.2341963,0.9799718,2.317548
121.1553,90.29069,0.1337146,0.9798071,2.317548
121.204,93.34225,0.05081802,0.9799718,2.317548
121.254,146.3632,-0.009470774,0.9799718,2.324007
121.3053,147.5076,-0.1225127,0.9798071,2.317548
121.354,146.4904,-0.1752659,0.9798071,2.324007
121.4048,149.5419,-0.2204825,0.9798071,2.317548
121.4547,147.6347,-0.2556506,0.9798071,2.317548
121.5044,135.937,-0.3033791,0.9798071,2.324007
121.5556,134.5384,-0.3008672,0.9798071,2.317548
121.6043,131.7411,-0.3008672,0.9798071,2.324007
121.6556,125.1294,-0.323476,0.9798071,2.324007
121.7043,121.8235,-0.3335235,0.9900191,2.317548
121.7543,116.6105,-0.3636679,0.9898543,2.317548
121.8056,113.4317,-0.4013489,0.9898543,2.324007
121.8541,110.6345,-0.4239567,0.9896896,2.317548
121.9053,105.2942,-0.436517,0.9898543,2.317548
121.9538,101.7341,-0.4314933,0.9898543,2.317548
122.0046,99.69969,-0.4013489,0.9896896,2.324007
122.0549,97.9196,-0.4164211,0.9898543,2.317548
122.1048,94.74089,-0.4415417,0.9898543,2.324007
122.1548,92.96081,-0.4214448,0.9900191,2.324007
122.2046,91.81647,-0.3762282,0.9898543,2.324007
122.2541,88.89205,-0.3938123,0.9898543,2.317548
122.3052,89.14634,-0.4616376,0.9900191,2.317548
122.3538,114.1946,-0.511878,0.9898543,2.324007
122.405,145.6003,-0.5043424,0.9900191,2.317548
122.4538,146.4904,-0.4767098,0.9900191,2.317548
122.5038,145.2189,-0.436517,0.9900191,2.317548
122.5556,151.7035,-0.361156,0.9898543,2.317548
122.6044,146.8718,-0.2782594,0.9900191,2.317548
122.6557,135.937,-0.155169,0.9898543,2.317548
122.7039,134.2841,0.01313706,0.9898543,2.317548
122.7539,132.1226,0.1563234,0.9898543,2.317548
122.8051,128.5624,0.23922,0.9898543,2.317548
122.8538,122.205,0.3246295,0.9898543,2.317548
122.9051,115.9747,0.482888,0.9896896,2.317548
122.9548,112.5417,0.6461703,0.9898543,2.317548
123.0038,109.363,0.7391154,0.9801366,2.317548
123.0551,105.8028,0.8195001,0.9798071,2.317548
123.1048,103.8956,0.8873255,0.9798071,2.317548
123.1554,100.2083,0.952638,0.9798071,2.311089
123.204,97.66531,0.990319,0.9799718,2.317548
123.2545,94.74089,1.028,0.9798071,2.317548
123.3059,93.978,1.07824,0.9798071,2.311089
123.3544,93.978,1.136017,0.9798071,2.317548
123.4051,90.41783,1.191282,0.9799718,2.317548
123.4549,88.38345,1.221427,0.9798071,2.311089
123.5048,94.10515,1.223938,0.9798071,2.317548
123.5557,132.6312,1.251571,0.9798071,2.317548
123.6041,144.0746,1.281715,0.9799718,2.311089
123.6552,140.5144,1.299299,0.9798071,2.311089
123.7048,141.6587,1.329444,0.9799718,2.311089
123.7547,142.9302,1.342004,0.9798071,2.311089
123.8058,134.6656,1.354565,0.9799718,2.317548
123.854,130.0882,1.377172,0.9799718,2.311089
123.9048,129.1982,1.399781,0.9798071,2.311089
123.954,125.638,1.394756,0.9798071,2.311089
124.0041,120.4249,1.37466,0.9898543,2.304629
124.0605,117.2462,1.344516,0.9896896,2.311089
124.1042,113.8132,1.31186,0.9898543,2.311089
124.1549,110.6345,1.279203,0.9898543,2.311089
124.2049,107.71,1.236499,0.9898543,2.311089
124.2547,104.0227,1.203842,0.9898543,2.311089
124.3056,102.3698,1.146065,0.9898543,2.304629
124.3542,99.69969,1.095824,0.9900191,2.311089
124.4053,97.02956,1.030512,0.9898543,2.304629
124.4549,94.74089,1.000367,0.9898543,2.311089
124.5045,93.72369,0.9802705,0.9900191,2.311089
124.5555,90.79928,0.9300302,0.9898543,2.304629
124.6042,90.54498,0.8295485,0.9898543,2.304629
124.655,112.5417,0.7592113,0.9898543,2.304629
124.7046,144.8374,0.7240432,0.9898543,2.304629
124.7542,143.4388,0.6687781,0.9900191,2.311089
124.805,143.0574,0.6160259,0.9896896,2.304629
124.8548,143.4388,0.5482005,0.9896896,2.304629
124.906,141.5316,0.4552555,0.9896896,2.29817
124.9546,130.0882,0.3773826,0.9898543,2.304629
125.0046,130.0882,0.314581,0.9896896,2.29817
125.0558,129.1982,0.2869494,0.9896896,2.29817
125.1039,124.3665,0.2668526,0.9898543,2.304629
125.156,119.4077,0.2316844,0.9896896,2.304629
125.2048,114.3218,0.20154,0.9898543,2.304629
125.2545,109.7444,0.1588353,0.9898543,2.304629
125.3058,106.9472,0.1362265,0.9898543,2.304629
125.3545,104.5313,0.1136187,0.9796425,2.29817
125.4058,101.4798,0.09854649,0.9798071,2.29817
125.4549,98.55534,0.08598617,0.9798071,2.29817
125.5044,96.01237,0.03323301,0.9799718,2.29817
125.555,92.32506,-0.07478425,0.9799718,2.29817
125.6038,91.56216,-0.04966361,0.9798071,2.29817
125.6548,90.54498,-0.04463986,0.9798071,2.29817
125.7047,88.5106,-0.1300493,0.9798071,2.29817
125.7545,92.07076,-0.2129459,0.9799718,2.29817
