t_sec,abp_mmHg,resp_arbunit,spo2_unitless,scon_muS
0,81.26313,0.4998356,0.9699246,2.782607
0.05148753,80.50024,0.4660368,0.9699246,2.789066
0.1014507,79.86449,0.4209713,0.9697599,2.789066
0.1498773,79.48306,0.3744982,0.9699246,2.782607
0.2004475,78.72016,0.3266164,0.9699246,2.782607
0.2504553,76.55863,0.2801428,0.9697599,2.782607
0.3016799,75.79574,0.2280364,0.9699246,2.782607
0.3505871,104.6585,0.2055037,0.9697599,2.782607
0.400549,118.8991,0.1815633,0.9699246,2.782607
0.4504506,101.0983,0.1646634,0.9697599,2.782607
0.4996766,94.10515,0.1505809,0.9699246,2.782607
0.5509984,93.2151,0.1421312,0.9699246,2.782607
0.6009971,94.48659,0.1491727,0.9697599,2.782607
0.6507338,96.90242,0.1491727,0.9697599,2.782607
0.69993,98.6825,0.1421312,0.9697599,2.782607
0.7534997,87.49342,0.140723,0.9699246,2.782607
0.8015177,85.96764,0.1393143,0.9699246,2.782607
0.8515194,84.82329,0.1336815,0.9697599,2.782607
0.9002099,83.67896,0.1280482,0.9697599,2.776148
0.9500964,82.91606,0.1181903,0.9699246,2.782607
0.999722,82.28033,0.1210067,0.9699246,2.776148
1.050995,79.73734,0.1195985,0.9699246,2.782607
1.101684,77.32152,0.1238236,0.9697599,2.782607
1.150536,85.20473,0.1421312,0.9699246,2.776148
1.200199,117.2462,0.1843797,0.9697599,2.776148
1.250021,111.3974,0.2336697,0.9695953,2.776148
1.300915,96.90242,0.2928176,0.9699246,2.776148
1.351081,95.75809,0.3561907,0.9697599,2.776148
1.399688,94.48659,0.4308298,0.9699246,2.776148
1.450821,97.53816,0.5096934,0.9699246,2.782607
1.500697,99.57254,0.5702496,0.9697599,2.776148
1.551503,91.43503,0.6420723,0.9697599,2.776148
1.600863,87.62056,0.6984038,0.9699246,2.776148
1.650707,86.73053,0.7378354,0.9699246,2.776148
1.700502,83.93326,0.7674096,0.9697599,2.776148
1.749705,83.29751,0.7871254,0.9699246,2.776148
1.800962,82.91606,0.8096586,0.9697599,2.776148
1.850844,80.88168,0.8237406,0.9697599,2.776148
1.900154,78.59301,0.8307821,0.9699246,2.776148
1.949661,78.97446,0.8378236,0.9699246,2.776148
2.000682,107.2015,0.8476815,0.9699246,2.769689
2.050896,116.8647,0.854723,0.9699246,2.769689
2.101532,96.13953,0.8533154,0.9699246,2.776148
2.150586,92.19792,0.8476815,0.9697599,2.769689
2.200317,89.5278,0.84064,0.9697599,2.769689
2.250242,93.72369,0.8293744,0.9697599,2.776148
2.301591,98.04675,0.8195165,0.9697599,2.776148
2.35166,97.15671,0.8026171,0.9697599,2.776148
2.399688,86.73053,0.7829008,0.9699246,2.769689
2.450684,82.91606,0.763185,0.9697599,2.769689
2.500682,81.26313,0.735019,0.9697599,2.769689
2.551515,79.3559,0.7082617,0.9598774,2.769689
2.601314,79.48306,0.6885459,0.9598774,2.769689
2.649829,78.33871,0.6547466,0.9598774,2.769689
2.699683,77.32152,0.6237647,0.9598774,2.769689
2.749984,77.44867,0.5941905,0.9598774,2.769689
2.801315,80.88168,0.5688414,0.9598774,2.769689
2.850905,113.3046,0.5491256,0.9598774,2.769689
2.900677,102.6241,0.5392677,0.9598774,2.769689
2.95065,92.7065,0.5294093,0.9598774,2.769689
3.000689,91.18073,0.5195514,0.9597127,2.769689
3.050698,92.57936,0.5209596,0.9598774,2.76323
3.100714,94.99519,0.5096934,0.9597127,2.76323
3.149782,98.30104,0.4984274,0.9598774,2.76323
3.200667,85.96764,0.4913859,0.9597127,2.769689
3.250819,84.44184,0.4829362,0.9598774,2.76323
3.300803,82.78893,0.4744865,0.9597127,2.76323
3.351481,80.88168,0.4688532,0.9597127,2.76323
3.400229,81.00883,0.4491374,0.9598774,2.76323
3.450233,79.86449,0.4420959,0.9598774,2.76323
3.500677,78.46587,0.4237882,0.9597127,2.76323
3.55148,75.66859,0.4012555,0.9600421,2.76323
3.601478,84.3147,0.3815398,0.9598774,2.76323
3.650226,117.5005,0.3604153,0.9597127,2.76323
3.700743,119.0263,0.3463322,0.9597127,2.76323
3.750277,97.41101,0.3378825,0.9598774,2.76323
3.801433,96.39381,0.330841,0.9598774,2.76323
3.850933,95.50377,0.3294328,0.9598774,2.76323
3.899696,95.75809,0.3322497,0.9598774,2.76323
3.950398,97.15671,0.330841,0.9598774,2.76323
3.999934,98.42819,0.3266164,0.9597127,2.76323
4.050962,87.23911,0.3181667,0.9598774,2.76323
4.100931,85.45904,0.3125334,0.9598774,2.76323
4.149765,84.82329,0.3083088,0.9597127,2.76323
4.200318,82.28033,0.3012673,0.9597127,2.76323
4.249685,81.26313,0.2942258,0.9598774,2.756771
4.301226,80.24594,0.2843679,0.9598774,2.756771
4.350654,75.79574,0.2731018,0.9597127,2.756771
4.400766,75.79574,0.2618352,0.9598774,2.76323
4.450718,77.32152,0.2505691,0.9598774,2.756771
4.500716,110.253,0.2421194,0.9597127,2.756771
4.551547,117.7548,0.2350779,0.9598774,2.756771
4.601474,103.8956,0.2336697,0.9598774,2.756771
4.650229,94.86804,0.2364861,0.9598774,2.756771
4.70022,94.61374,0.2407112,0.9598774,2.756771
4.753015,94.99519,0.2576106,0.9597127,2.756771
4.801747,96.13953,0.2815515,0.9598774,2.756771
4.851558,98.80965,0.3125334,0.9598774,2.756771
4.899704,87.11198,0.3491491,0.9597127,2.756771
4.949709,84.44184,0.3913977,0.9597127,2.750311
5.000428,82.91606,0.4420959,0.9598774,2.756771
5.051469,81.39028,0.502652,0.9598774,2.756771
5.10147,80.11879,0.5406759,0.9598774,2.750311
5.150024,77.95727,0.5899659,0.9598774,2.750311
5.200743,76.30434,0.6533384,0.9598774,2.750311
5.250543,74.77856,0.6913623,0.9600421,2.756771
5.301436,73.12562,0.7237529,0.9598774,2.756771
5.351047,74.14281,0.7505102,0.9598774,2.750311
5.400729,115.0847,0.7772675,0.9598774,2.750311
5.450543,115.0847,0.8012084,0.9598774,2.750311
5.500467,98.55534,0.8237406,0.9597127,2.750311
5.551648,90.79928,0.8378236,0.9598774,2.750311
5.601147,89.40065,0.8533154,0.9598774,2.750311
5.650797,92.19792,0.8673984,0.9597127,2.750311
5.700549,96.90242,0.8744388,0.9598774,2.750311
5.750548,97.66531,0.8730311,0.9598774,2.750311
5.80113,87.49342,0.8659896,0.9598774,2.750311
5.850991,83.55181,0.850499,0.9598774,2.750311
5.900071,81.89888,0.8321908,0.9598774,2.750311
5.949866,81.00883,0.8138827,0.9598774,2.743852
6.000551,80.24594,0.7829008,0.9598774,2.750311
6.051215,79.10161,0.7589599,0.9598774,2.750311
6.100775,76.81293,0.7251611,0.9598774,2.743852
6.150719,75.16,0.6913623,0.9600421,2.750311
6.20015,76.30434,0.6617881,0.9597127,2.743852
6.250131,114.7032,0.6420723,0.9598774,2.750311
6.301471,109.2358,0.6237647,0.9597127,2.743852
6.351044,90.29069,0.601232,0.9598774,2.750311
6.400216,84.44184,0.5829244,0.9598774,2.743852
6.450806,83.80611,0.566025,0.9600421,2.743852
6.500417,94.99519,0.5561671,0.9598774,2.743852
6.550804,96.26666,0.5406759,0.9598774,2.743852
6.601484,94.61374,0.5223683,0.9598774,2.743852
6.649716,81.39028,0.5068771,0.9598774,2.743852
6.699916,77.95727,0.4956105,0.9598774,2.743852
6.7508,76.68578,0.481528,0.9597127,2.743852
6.801451,75.41429,0.4688532,0.9600421,2.743852
6.85146,75.92289,0.4547701,0.9598774,2.743852
6.899932,74.01566,0.4280128,0.9597127,2.743852
6.950208,71.85413,0.4054801,0.9597127,2.743852
6.999945,73.63422,0.3787228,0.9598774,2.743852
7.051192,114.4489,0.368865,0.9600421,2.743852
7.100705,116.9919,0.3575988,0.9598774,2.743852
7.150517,96.64812,0.3575988,0.9597127,2.743852
7.199791,90.41783,0.3519655,0.9597127,2.743852
7.24966,89.40065,0.3477409,0.9597127,2.743852
7.300645,90.67213,0.3547819,0.9598774,2.737393
7.351194,95.88522,0.3547819,0.9598774,2.743852
7.400681,96.13953,0.3491491,0.9598774,2.743852
7.450188,83.42466,0.344924,0.9598774,2.743852
7.500179,81.77173,0.3421077,0.9598774,2.743852
7.551184,79.48306,0.3378825,0.9697599,2.743852
7.601788,78.21156,0.333658,0.9699246,2.743852
7.650541,77.70296,0.3252082,0.9697599,2.743852
7.699678,77.19438,0.3026755,0.9697599,2.737393
7.749678,74.90571,0.2942258,0.9699246,2.737393
7.801441,73.37991,0.2787346,0.9699246,2.743852
7.851333,82.66177,0.2688767,0.9697599,2.743852
7.89995,119.2806,0.2632434,0.9697599,2.737393
7.950139,108.9815,0.2674685,0.9699246,2.737393
8.000607,91.94361,0.2660603,0.9697599,2.737393
8.051827,91.56216,0.2716931,0.9699246,2.737393
8.101783,91.68932,0.2815515,0.9697599,2.737393
8.149891,96.52097,0.3012673,0.9699246,2.737393
8.20083,98.1739,0.3209831,0.9697599,2.737393
8.249827,87.36626,0.344924,0.9697599,2.737393
8.301329,84.18755,0.3730901,0.9699246,2.737393
8.350724,82.66177,0.4068889,0.9699246,2.737393
8.400496,79.73734,0.4575871,0.9697599,2.730934
8.45033,79.48306,0.4942023,0.9697599,2.730934
8.500326,78.59301,0.5434923,0.9699246,2.730934
8.551523,77.06723,0.5815162,0.9699246,2.730934
8.601493,74.90571,0.6068653,0.9699246,2.730934
8.650157,77.06723,0.6772793,0.9697599,2.730934
8.700158,115.8476,0.8420488,0.9695953,2.730934
8.753091,115.2118,0.9673861,0.9699246,2.730934
8.801653,103.2598,1.070191,0.9699246,2.730934
8.851534,90.79928,1.116664,0.9697599,2.730934
8.900274,88.89205,1.150463,0.9697599,2.730934
8.95028,94.2323,1.171588,0.9699246,2.730934
9.000637,96.13953,1.170179,0.9697599,2.730934
9.051696,95.12233,1.137789,0.9699246,2.730934
9.101449,83.80611,1.082865,0.9697599,2.730934
9.150125,81.00883,1.029351,0.9699246,2.730934
9.199862,80.24594,0.9941434,0.9697599,2.730934
9.250524,79.3559,0.9927357,0.9697599,2.724475
9.301611,79.99165,1.008226,0.9697599,2.730934
9.35165,78.97446,1.015268,0.9697599,2.724475
9.399913,77.06723,1.008226,0.9697599,2.730934
9.450068,90.29069,0.9589369,0.9697599,2.730934
9.49982,114.1946,0.9026048,0.9699246,2.724475
9.551297,112.0331,0.8617646,0.9697599,2.724475
9.601319,92.57936,0.8364159,0.9699246,2.724475
9.650145,89.90925,0.8392323,0.9697599,2.724475
9.699945,86.73053,0.8490902,0.9695953,2.724475
9.750825,96.90242,0.8533154,0.9697599,2.724475
9.800772,97.79247,0.8462738,0.9699246,2.724475
9.851121,96.13953,0.8448651,0.9699246,2.724475
9.900648,83.17036,0.8659896,0.9697599,2.724475
9.950523,81.77173,0.8744388,0.9697599,2.724475
10.00027,79.86449,0.84064,0.9697599,2.724475
10.05151,79.22876,0.7603681,0.9699246,2.737393
10.10167,78.59301,0.6702378,0.9697599,2.724475
10.15003,75.41429,0.5970074,0.9699246,2.718016
10.20053,76.68578,0.5463087,0.9697599,2.724475
10.25095,99.95398,0.530818,0.9699246,2.724475
10.30144,119.662,0.5181432,0.9697599,2.724475
10.35138,102.8784,0.4561789,0.9697599,2.724475
10.4004,95.50377,0.3435158,0.9699246,2.724475
10.45061,94.86804,0.211137,0.9697599,2.724475
10.5004,94.2323,0.1393143,0.9699246,2.724475
10.55152,98.04675,0.09706578,0.9699246,2.724475
10.60152,97.66531,0.03932607,0.9699246,2.718016
10.65066,87.11198,-0.03812944,0.9699246,2.718016
10.70015,84.569,-0.1184019,0.9697599,2.718016
10.75003,82.91606,-0.1888159,0.9697599,2.718016
10.80139,82.78893,-0.3662596,0.9699246,2.718016
10.85084,82.40748,-0.5972185,0.9699246,2.718016
10.90016,79.48306,-0.7971949,0.9697599,2.718016
10.9509,76.81293,-0.8746509,0.9699246,2.718016
11.00089,79.99165,-0.9337988,0.9697599,2.718016
11.05166,116.7376,-0.9295737,0.9699246,2.718016
11.10149,110.7616,-0.8662012,0.9697599,2.718016
11.14987,95.75809,-0.8746509,0.9699246,2.711556
11.20089,92.19792,-1.128142,0.9699246,2.718016
11.25068,91.81647,-1.246438,0.9697599,2.724475
11.30139,96.77527,-1.188698,0.9699246,2.711556
11.35139,98.55534,-1.015479,0.9697599,2.718016
11.40041,87.36626,-0.7817037,0.9697599,2.718016
11.45084,83.67896,-0.5732775,0.9697599,2.718016
11.50017,80.62739,-0.4028753,0.9699246,2.718016
11.5512,79.86449,-0.2479638,0.9597127,2.718016
11.60116,78.84731,-0.1029107,0.9598774,2.718016
11.65036,76.94007,0.06749209,0.9598774,2.718016
11.70086,75.54144,0.2139534,0.9598774,2.718016
11.7502,75.41429,0.3139416,0.9600421,2.718016
11.80115,87.74771,0.4251965,0.9600421,2.718016
11.85162,106.82,0.5350426,0.9598774,2.718016
11.90013,103.0055,0.6054571,0.9597127,2.718016
11.95086,88.89205,0.6871372,0.9598774,2.718016
12.00068,87.23911,0.7533266,0.9597127,2.718016
12.05193,90.16354,0.8223329,0.9598774,2.724475
12.10193,94.86804,0.8716224,0.9598774,2.718016
12.15063,94.61374,0.9138715,0.9598774,2.724475
12.20066,88.00201,0.9476703,0.9598774,2.724475
12.25026,81.26313,0.9673861,0.9598774,2.724475
12.30185,78.46587,0.9786527,0.9598774,2.724475
12.35188,77.95727,0.977244,0.9598774,2.730934
12.40017,78.33871,0.9631609,0.9598774,2.730934
12.44973,76.68578,0.9335873,0.9597127,2.730934
12.50039,74.65141,0.9026048,0.9597127,2.737393
12.55138,106.0571,0.8730311,0.9597127,2.737393
12.60093,110.6345,0.8321908,0.9598774,2.737393
12.6508,97.79247,0.7913505,0.9597127,2.743852
12.70039,86.09478,0.7519184,0.9598774,2.743852
12.75335,81.39028,0.7223447,0.9598774,2.743852
12.80085,82.66177,0.6941787,0.9598774,2.750311
12.85088,92.57936,0.6603799,0.9598774,2.756771
12.90038,93.72369,0.6293975,0.9597127,2.756771
12.95019,79.3559,0.5801075,0.9598774,2.76323
13.00016,78.21156,0.5477174,0.9598774,2.76323
13.05125,77.57583,0.5068771,0.9598774,2.769689
13.10113,75.03284,0.4646286,0.9597127,2.776148
13.14976,74.65141,0.394214,0.9598774,2.782607
13.20075,73.88851,0.3181667,0.9598774,2.789066
13.25025,85.58618,0.2449358,0.9597127,2.795526
13.30152,116.4833,0.1871961,0.9598774,2.795526
13.35151,104.0227,0.1364979,0.9598774,2.801985
13.40029,91.05358,0.05340908,0.9598774,2.808444
13.45004,87.49342,-0.01700493,0.9598774,2.814903
13.5008,86.34908,-0.05925343,0.9597127,2.821362
13.5515,95.63092,-0.09023584,0.9598774,2.827821
13.60167,97.02956,-0.1254428,0.9598774,2.834281
13.65068,84.82329,-0.1775498,0.9598774,2.84074
13.70071,80.88168,-0.1859995,0.9597127,2.847199
13.7508,79.3559,-0.193041,0.9597127,2.853658
13.80173,78.46587,-0.2057153,0.9600421,2.860117
13.85168,77.83012,-0.2240229,0.9598774,2.866576
13.90005,75.41429,-0.2381059,0.9598774,2.873036
13.95015,87.11198,-0.2535971,0.9597127,2.885954
14,118.8991,-0.2507802,0.9598774,2.892413
14.051,112.9231,-0.2409223,0.9598774,2.898872
14.10158,94.2323,-0.2465556,0.9598774,2.905332
14.15036,91.18073,-0.2395141,0.9598774,2.91825
14.19975,89.5278,-0.2338808,0.9598774,2.924709
14.25092,93.85085,-0.2268398,0.9598774,2.931168
14.30079,96.77527,-0.2155732,0.9597127,2.944087
14.35179,86.34908,-0.2028989,0.9597127,2.950546
14.40035,82.40748,-0.1944492,0.9598774,2.957005
14.45034,80.11879,-0.1845913,0.9597127,2.969923
14.50048,77.83012,-0.1719165,0.9597127,2.982841
14.55164,77.44867,-0.164875,0.9697599,2.99576
14.60148,75.79574,-0.164875,0.9699246,3.008678
14.65014,75.92289,-0.1761416,0.9697599,3.021596
14.69998,109.4901,-0.1859995,0.9697599,3.034515
14.74991,118.5177,-0.1859995,0.9699246,3.040974
14.8013,109.4901,-0.1831826,0.9699246,3.053892
14.85131,95.37663,-0.1888159,0.9697599,3.06681
14.9003,89.5278,-0.193041,0.9697599,3.079729
14.95012,89.90925,-0.1972656,0.9697599,3.086188
14.99992,95.75809,-0.2268398,0.9699246,3.099106
15.05142,97.53816,-0.2310644,0.9699246,3.112025
15.10183,85.33189,-0.2507802,0.9699246,3.124943
15.14991,82.02603,-0.2676801,0.9697599,3.137861
15.20035,80.88168,-0.3014789,0.9697599,3.14432
15.25088,79.61021,-0.3648514,0.9699246,3.157239
15.30103,78.21156,-0.4225911,0.9697599,3.170157
15.35186,77.70296,-0.4930056,0.9697599,3.183075
15.39979,83.29751,-0.6225675,0.9699246,3.189535
15.45091,109.2358,-0.7014318,0.9697599,3.202453
15.50063,117.6276,-0.7141061,0.9697599,3.208912
15.55122,94.10515,-0.7155142,0.9695953,3.215371
15.60116,91.30788,-0.6605915,0.9697599,3.22829
15.65003,89.0192,-0.5000466,0.9697599,3.241208
15.69983,96.01237,-0.3211947,0.9699246,3.247667
15.74978,98.55534,-0.1803662,0.9697599,3.254126
15.80188,97.15671,-0.03531305,0.9699246,3.267045
15.85188,82.78893,0.1379061,0.9697599,3.273504
15.90044,82.91606,0.3111252,0.9697599,3.279963
15.95043,80.88168,0.432238,0.9697599,3.286422
16.00043,79.73734,0.5350426,0.9697599,3.286422
16.0516,78.84731,0.6068653,0.9699246,3.292881
16.10123,77.19438,0.6688296,0.9697599,3.3058
16.14978,87.49342,0.7167114,0.9697599,3.3058
16.19996,118.5177,0.7617763,0.9697599,3.312259
16.2499,114.5761,0.8054335,0.9697599,3.318718
16.30097,91.56216,0.8392323,0.9699246,3.331636
16.35159,88.5106,0.8730311,0.9699246,3.331636
16.40023,88.00201,0.9124628,0.9697599,3.331636
16.45009,98.04675,0.9448539,0.9699246,3.338095
16.50015,98.1739,0.977244,0.9699246,3.344555
16.55146,85.45904,0.9983685,0.9697599,3.344555
16.60135,83.67896,1.016677,0.9697599,3.344555
16.65086,81.64457,1.029351,0.9697599,3.351014
16.70073,80.50024,1.034984,0.9699246,3.351014
16.75376,79.3559,1.039209,0.9699246,3.351014
16.80133,78.33871,1.0378,0.9699246,3.357473
16.85115,79.86449,1.022309,0.9699246,3.357473
16.8999,103.7684,0.9997761,0.9699246,3.363932
16.95042,113.686,0.9589369,0.9699246,3.357473
17.00003,97.53816,0.8927469,0.9699246,3.363932
17.05174,84.82329,0.8307821,0.9699246,3.363932
17.10158,82.91606,0.7997997,0.9697599,3.363932
17.1509,94.99519,0.7772675,0.9697599,3.363932
17.19993,95.63092,0.7406523,0.9697599,3.363932
17.251,94.86804,0.6941787,0.9697599,3.370391
17.30102,81.13599,0.636439,0.9699246,3.370391
17.3516,78.59301,0.5843326,0.9697599,3.370391
17.40018,77.44867,0.5350426,0.9697599,3.363932
17.45098,77.44867,0.4547701,0.9697599,3.370391
17.49986,76.30434,0.3843561,0.9697599,3.363932
17.55108,76.81293,0.333658,0.9699246,3.370391
17.60137,109.4901,0.2928176,0.9699246,3.370391
17.65002,117.2462,0.260427,0.9697599,3.370391
17.70101,97.53816,0.2350779,0.9697599,3.363932
17.75019,90.29069,0.1871961,0.9697599,3.370391
17.80135,88.5106,0.1139652,0.9699246,3.370391
17.8512,91.81647,0.07030848,0.9697599,3.363932
17.90037,96.26666,0.03510148,0.9697599,3.357473
17.95037,97.28386,0.02242667,0.9699246,3.357473
18.00012,83.93326,-0.005738831,0.9697599,3.357473
18.05112,80.11879,-0.04376275,0.9699246,3.357473
18.1011,79.48306,-0.06911185,0.9697599,3.357473
18.15048,79.22876,-0.07615284,0.9697599,3.351014
18.20003,77.44867,-0.08601125,0.9699246,3.351014
18.25057,75.92289,-0.09868555,0.9697599,3.351014
18.30157,84.95044,-0.1127686,0.9699246,3.351014
18.35158,120.2978,-0.1240347,0.9697599,3.351014
18.40022,112.1602,-0.1395259,0.9699246,3.351014
18.4501,93.978,-0.1986738,0.9699246,3.344555
18.49998,92.19792,-0.2212065,0.9697599,3.344555
18.55156,91.81647,-0.2155732,0.9697599,3.344555
18.60158,96.26666,-0.2930292,0.9699246,3.344555
18.65005,97.66531,-0.3986502,0.9699246,3.338095
18.70048,87.49342,-0.5056799,0.9697599,3.338095
18.75061,81.77173,-0.6957985,0.9699246,3.331636
18.80086,81.51743,-0.8802837,0.9699246,3.331636
18.85186,80.50024,-1.149266,0.9697599,3.318718
18.90096,78.59301,-1.485846,0.9697599,3.312259
18.95057,78.33871,-1.681598,0.9697599,3.312259
19.00039,77.70296,-1.66329,0.9699246,3.325177
19.0511,102.497,-1.65484,0.9697599,3.318718
19.10083,119.9163,-1.570343,0.9695953,3.318718
19.15019,105.5485,-1.287278,0.9699246,3.312259
19.20047,92.96081,-0.9577397,0.9697599,3.312259
19.25014,90.03638,-0.7324136,0.9697599,3.312259
19.3016,90.16354,-0.5760944,0.9697599,3.312259
19.35145,96.13953,-0.5690529,0.9699246,3.312259
19.40059,96.26666,-0.580319,0.9699246,3.29934
19.45039,83.42466,-0.5070881,0.9699246,3.29934
19.50039,80.88168,-0.3718929,0.9697599,3.29934
19.55139,80.24594,-0.1620586,0.9699246,3.29934
19.60147,79.3559,0.091433,0.9699246,3.29934
19.65065,78.72016,0.3026755,0.9697599,3.292881
19.70065,76.81293,0.4589953,0.9697599,3.292881
19.75,78.46587,0.5688414,0.9697599,3.292881
19.80138,82.40748,0.6744629,0.9699246,3.292881
19.85097,111.3974,0.7589599,0.9699246,3.292881
19.90082,95.75809,0.7983921,0.9697599,3.286422
19.95074,88.00201,0.8307821,0.9697599,3.279963
19.99993,85.45904,0.8519067,0.9697599,3.273504
20.05084,92.19792,0.8617646,0.9697599,3.273504
20.10084,96.01237,0.8716224,0.9697599,3.273504
20.15084,94.74089,0.8885219,0.9697599,3.273504
20.20072,82.15317,0.90683,0.9699246,3.273504
20.2501,79.48306,0.9307709,0.9697599,3.267045
20.30159,78.21156,0.9589369,0.9697599,3.267045
20.35163,77.83012,0.9673861,0.9697599,3.260585
20.40011,76.05004,0.9603446,0.9699246,3.260585
20.4507,76.94007,0.9434451,0.9697599,3.254126
20.50066,106.6929,0.9223207,0.9697599,3.260585
20.5511,110.6345,0.9054213,0.9697599,3.254126
20.60121,91.94361,0.8871142,0.9699246,3.254126
20.65083,83.80611,0.8688061,0.9697599,3.247667
20.70062,81.64457,0.8462738,0.9697599,3.247667
20.75274,90.41783,0.8307821,0.9697599,3.241208
20.8018,94.35944,0.80825,0.9699246,3.241208
20.85133,94.48659,0.7589599,0.9699246,3.241208
20.90083,79.73734,0.7406523,0.9697599,3.234749
20.9507,76.81293,0.7434687,0.9699246,3.241208
21.00023,76.55863,0.7378354,0.9697599,3.241208
21.05138,75.03284,0.7322026,0.9700893,3.234749
21.10146,75.03284,0.6969956,0.9697599,3.22829
21.15025,83.55181,0.6519302,0.9697599,3.22829
21.19988,117.8819,0.6744629,0.9699246,3.22829
21.25012,112.1602,0.699812,0.9697599,3.22183
21.30125,90.92643,0.7181196,0.9697599,3.215371
21.35125,88.25631,0.7012202,0.9697599,3.22183
21.40055,87.36626,0.6772793,0.9699246,3.208912
21.44999,93.978,0.6434805,0.9697599,3.215371
21.50063,95.24948,0.5491256,0.9695953,3.215371
21.55158,89.2735,0.4251965,0.9697599,3.208912
21.60212,79.3559,0.380131,0.9699246,3.208912
21.65072,77.57583,0.3266164,0.9697599,3.208912
21.70046,77.57583,0.2266282,0.9697599,3.208912
21.75006,77.57583,0.08439149,0.9697599,3.202453
21.80197,76.55863,-0.01841364,0.9699246,3.195994
21.85158,94.99519,-0.1240347,0.9697599,3.195994
21.90017,121.0607,-0.263455,0.9699246,3.195994
21.94996,106.1843,-0.2747211,0.9697599,3.195994
22.00054,92.19792,-0.2240229,0.9697599,3.202453
22.05163,90.67213,-0.2028989,0.9699246,3.202453
22.1016,90.54498,-0.214165,0.9699246,3.202453
22.1502,97.66531,-0.2226147,0.9697599,3.202453
22.20096,98.1739,-0.1831826,0.9699246,3.202453
22.25033,83.67896,-0.1212183,0.9699246,3.202453
22.30162,82.53461,-0.06770314,0.9699246,3.202453
22.35137,80.24594,-0.03249613,0.9699246,3.208912
22.40006,78.97446,0.01961027,0.9697599,3.208912
22.45058,77.83012,0.091433,0.9697599,3.215371
22.50057,75.79574,0.2040955,0.9697599,3.215371
22.55104,86.09478,0.2984509,0.9697599,3.215371
22.60174,121.9507,0.3871725,0.9699246,3.22183
22.65045,111.5245,0.4899777,0.9697599,3.22183
22.70045,96.52097,0.5702496,0.9697599,3.22183
22.75017,89.5278,0.6547466,0.9697599,3.22183
22.80165,89.5278,0.7434687,0.9699246,3.22829
22.85208,94.48659,0.8195165,0.9699246,3.234749
22.90043,96.77527,0.8688061,0.9697599,3.234749
22.95045,85.07759,0.9180965,0.9697599,3.234749
23.0003,81.64457,0.9631609,0.9697599,3.241208
23.05137,79.22876,0.9983685,0.9699246,3.241208
23.10137,79.3559,1.020901,0.9697599,3.247667
23.14996,78.59301,1.043434,0.9699246,3.247667
23.20105,76.30434,1.065966,0.9700893,3.254126
23.25008,78.33871,1.087091,0.9697599,3.254126
23.30162,104.4042,1.109623,0.9697599,3.254126
23.35161,116.3562,1.132155,0.9699246,3.260585
23.4003,99.69969,1.151872,0.9699246,3.260585
23.44994,87.74771,1.160321,0.9697599,3.267045
23.50085,81.77173,1.160321,0.9697599,3.273504
23.55158,91.56216,1.150463,0.9699246,3.286422
23.60107,94.48659,1.130747,0.9700893,3.286422
23.65086,94.61374,1.096949,0.9697599,3.292881
23.69993,80.88168,1.06315,0.9699246,3.292881
23.74996,77.70296,1.020901,0.9697599,3.292881
23.80104,77.06723,0.9673861,0.9700893,3.29934
23.85093,76.43149,0.9166878,0.9697599,3.29934
23.90023,76.17719,0.8519067,0.9697599,3.3058
23.95024,74.90571,0.7758593,0.9697599,3.3058
24.00024,88.00201,0.6984038,0.9697599,3.312259
24.05131,116.4833,0.6378472,0.9699246,3.312259
24.10132,105.5485,0.5786993,0.9699246,3.318718
24.15089,85.45904,0.5111017,0.9699246,3.318718
24.20083,81.13599,0.4744865,0.9699246,3.318718
24.25009,83.42466,0.4378707,0.9699246,3.318718
24.30119,94.61374,0.3871725,0.9699246,3.325177
24.35107,93.34225,0.333658,0.9699246,3.325177
24.40077,84.95044,0.2815515,0.9699246,3.325177
24.45061,77.57583,0.246344,0.9697599,3.331636
24.50058,73.63422,0.2167703,0.9697599,3.331636
24.55196,73.50706,0.1829715,0.9699246,3.331636
24.60096,73.88851,0.1505809,0.9697599,3.331636
24.65065,73.63422,0.1139652,0.9699246,3.331636
24.70009,74.90571,0.06608389,0.9697599,3.338095
24.75315,113.8132,0.05059268,0.9699246,3.331636
24.80187,121.1878,0.04636757,0.9699246,3.338095
24.85221,107.9643,0.04495938,0.9699246,3.338095
24.90052,88.63776,0.03932607,0.9697599,3.338095
24.95081,88.00201,0.04214298,0.9699246,3.338095
25.00097,93.46941,0.06185878,0.9699246,3.338095
25.05135,96.39381,0.07171668,0.9697599,3.338095
25.10189,95.63092,0.07312488,0.9697599,3.338095
25.15043,81.13599,0.07312488,0.9699246,3.338095
25.20097,77.95727,0.07594179,0.9697599,3.338095
25.25003,77.44867,0.07312488,0.9697599,3.338095
25.30143,75.41429,0.07594179,0.9697599,3.338095
25.35202,73.76136,0.06467517,0.9699246,3.338095
25.40035,73.50706,0.05763419,0.9697599,3.338095
25.45103,77.44867,0.05340908,0.9699246,3.338095
25.50085,118.6448,0.05340908,0.9697599,3.338095
25.55195,116.1019,0.05904239,0.9697599,3.331636
25.60195,94.2323,0.05481727,0.9699246,3.338095
25.65005,87.62056,0.05763419,0.9697599,3.338095
25.70003,86.60338,0.06890029,0.9697599,3.338095
25.75002,91.81647,0.08439149,0.9697599,3.338095
25.80103,94.86804,0.0984745,0.9699246,3.338095
25.85185,94.86804,0.1421312,0.9697599,3.338095
25.90018,79.86449,0.2055037,0.9697599,3.331636
25.95082,76.55863,0.2815515,0.9699246,3.338095
26.0002,74.01566,0.3575988,0.9699246,3.331636
26.05101,73.76136,0.4223796,0.9699246,3.331636
26.10155,73.37991,0.481528,0.9697599,3.331636
26.15104,71.59984,0.5420841,0.9697599,3.331636
26.20052,70.70979,0.5955987,0.9697599,3.331636
26.25076,97.66531,0.6533384,0.9697599,3.331636
26.30118,118.8991,0.7096699,0.9699246,3.331636
26.35158,88.00201,0.7589599,0.9697599,3.331636
26.40105,83.17036,0.80825,0.9700893,3.331636
26.45052,84.3147,0.8476815,0.9697599,3.331636
26.50031,93.59654,0.8871142,0.9699246,3.325177
26.55152,95.75809,0.920913,0.9697599,3.331636
26.60131,93.34225,0.9434451,0.9699246,3.331636
26.65006,80.50024,0.9659774,0.9697599,3.325177
26.70085,78.59301,0.991327,0.9697599,3.325177
26.75085,77.83012,1.009635,0.9697599,3.325177
26.80172,76.94007,1.025126,0.9699246,3.325177
26.85108,76.55863,1.026534,0.9699246,3.325177
26.90032,74.65141,1.020901,0.9697599,3.318718
26.95032,94.74089,1.009635,0.9697599,3.318718
27.00008,114.4489,0.9927357,0.9699246,3.318718
27.05117,96.39381,0.9617532,0.9699246,3.318718
27.1018,86.47623,0.9279545,0.9699246,3.318718
27.15059,78.21156,0.8969721,0.9699246,3.312259
27.20011,82.91606,0.8702148,0.9697599,3.312259
27.25019,92.19792,0.8462738,0.9697599,3.312259
27.30113,94.61374,0.8181078,0.9699246,3.312259
27.35184,80.50024,0.7899418,0.9697599,3.312259
27.40109,78.97446,0.763185,0.9699246,3.312259
27.45084,75.41429,0.7364272,0.9699246,3.3058
27.50031,74.90571,0.6984038,0.9699246,3.312259
27.55208,73.88851,0.650522,0.9699246,3.312259
27.6019,76.05004,0.6054571,0.9699246,3.312259
27.65059,98.80965,0.5589835,0.9697599,3.3058
27.70108,117.2462,0.5223683,0.9699246,3.3058
27.75112,98.42819,0.4857526,0.9699246,3.29934
27.80112,92.96081,0.4364626,0.9697599,3.3058
27.85206,84.44184,0.380131,0.9699246,3.29934
27.90116,92.83366,0.3463322,0.9697599,3.29934
27.9508,95.63092,0.3167585,0.9697599,3.29934
28.00079,96.77527,0.2829597,0.9699246,3.292881
28.05184,84.82329,0.2505691,0.9699246,3.292881
28.10167,78.97446,0.2167703,0.9699246,3.292881
28.15055,77.83012,0.190013,0.9697599,3.292881
28.20054,77.95727,0.1660721,0.9699246,3.292881
28.25113,77.32152,0.1252318,0.9699246,3.286422
28.30217,77.83012,0.06185878,0.9697599,3.286422
28.35109,118.3905,0.02946817,0.9699246,3.286422
28.40071,122.0779,0.02383538,0.9699246,3.279963
28.45103,97.41101,0.02242667,0.9699246,3.279963
28.50043,94.2323,0.01256877,0.9697599,3.279963
28.55159,92.96081,0.006935981,0.9697599,3.279963
28.60126,93.72369,0.01820208,0.9699246,3.279963
28.65054,98.6825,0.02242667,0.9697599,3.273504
28.70102,98.80965,0.02242667,0.9697599,3.273504
28.75335,87.87486,0.02101847,0.9699246,3.267045
28.80196,85.58618,0.02242667,0.9699246,3.267045
28.85184,82.91606,0.02242667,0.9699246,3.267045
28.90103,82.15317,0.01820208,0.9699246,3.267045
28.95087,80.11879,0.02242667,0.9697599,3.267045
29.00104,81.64457,0.06045058,0.9699246,3.267045
29.05196,105.5485,0.1533973,0.9699246,3.267045
29.10222,121.9507,0.2505691,0.9699246,3.260585
29.15083,100.844,0.3519655,0.9699246,3.254126
29.20071,94.99519,0.418155,0.9699246,3.254126
29.25071,94.61374,0.4998356,0.9697599,3.254126
29.30222,97.9196,0.5899659,0.9699246,3.254126
29.35106,101.4798,0.6575635,0.9697599,3.254126
29.40084,99.57254,0.7167114,0.9699246,3.254126
29.45089,87.74771,0.7575517,0.9697599,3.247667
29.50027,85.45904,0.8040248,0.9699246,3.247667
29.55117,84.569,0.8392323,0.9697599,3.247667
29.60105,83.67896,0.8645809,0.9700893,3.247667
29.65108,81.77173,0.8871142,0.9697599,3.247667
29.70088,81.39028,0.9040136,0.9699246,3.241208
29.75083,109.8716,0.9195042,0.9697599,3.241208
29.80183,118.2634,0.9335873,0.9697599,3.241208
29.85183,113.1774,0.9434451,0.9697599,3.241208
29.9005,94.35944,0.9434451,0.9697599,3.241208
29.95008,91.81647,0.9392201,0.9697599,3.234749
30.00108,98.30104,0.9307709,0.9699246,3.234749
30.0513,99.57254,0.9110551,0.9699246,3.234749
30.1022,98.04675,0.8927469,0.9697599,3.234749
30.15083,88.38345,0.8617646,0.9697599,3.22829
30.20054,86.09478,0.84064,0.9699246,3.22829
30.25112,83.80611,0.8181078,0.9697599,3.22829
30.30219,83.80611,0.7983921,0.9697599,3.22829
30.35114,83.04321,0.7674096,0.9699246,3.22829
30.40105,82.28033,0.7307944,0.9699246,3.22183
30.45107,100.4626,0.7026284,0.9699246,3.22183
30.50102,118.5177,0.6744629,0.9697599,3.22183
30.55208,104.9128,0.6561553,0.9697599,3.22183
30.60207,94.2323,0.6308062,0.9699246,3.215371
30.65082,91.18073,0.5984156,0.9699246,3.215371
30.70082,92.19792,0.5801075,0.9699246,3.215371
30.75007,101.0983,0.5547584,0.9697599,3.208912
30.80156,97.9196,0.5336344,0.9699246,3.215371
30.85155,88.12916,0.5040601,0.9697599,3.215371
30.90032,84.95044,0.4744865,0.9697599,3.208912
30.95007,83.04321,0.4420959,0.9697599,3.208912
31.00005,81.00883,0.394214,0.9699246,3.208912
31.05107,80.24594,0.3618234,0.9699246,3.208912
31.10107,80.62739,0.3167585,0.9699246,3.208912
31.15079,78.21156,0.2646521,0.9697599,3.202453
31.20049,78.84731,0.2097288,0.9699246,3.202453
31.25006,122.8407,0.1928294,0.9699246,3.202453
31.30149,115.4661,0.2026873,0.9699246,3.202453
31.35106,101.6069,0.2026873,0.9697599,3.202453
31.40119,99.82683,0.1984627,0.9699246,3.202453
31.45079,99.31824,0.1928294,0.9697599,3.195994
31.50082,99.06393,0.1928294,0.9697599,3.195994
31.55175,99.82683,0.1928294,0.9697599,3.195994
31.6012,93.34225,0.1843797,0.9699246,3.195994
31.65094,89.0192,0.1731136,0.9699246,3.195994
31.70037,87.87486,0.161847,0.9697599,3.189535
31.7504,85.58618,0.1519891,0.9699246,3.189535
31.80149,84.82329,0.1449476,0.9699246,3.189535
31.8522,83.67896,0.1421312,0.9699246,3.189535
31.90039,81.00883,0.1252318,0.9697599,3.189535
31.95006,79.86449,0.1041073,0.9697599,3.183075
32.00006,86.34908,0.07453359,0.9699246,3.189535
32.05114,122.8407,0.06045058,0.9699246,3.183075
32.10206,115.4661,0.05763419,0.9697599,3.183075
32.15007,98.1739,0.05481727,0.9697599,3.176616
32.20105,97.28386,0.06045058,0.9699246,3.183075
32.25106,96.13953,0.06749209,0.9697599,3.183075
32.30219,98.42819,0.08157457,0.9699246,3.183075
32.35164,101.8612,0.08157457,0.9697599,3.176616
32.40004,99.57254,0.07734998,0.9697599,3.176616
32.45089,87.11198,0.07171668,0.9697599,3.176616
32.50064,84.0604,0.05622547,0.9699246,3.170157
32.55173,83.42466,0.02946817,0.9697599,3.176616
32.60127,82.78893,-0.009963942,0.9697599,3.170157
32.65048,82.66177,-0.01278034,0.9699246,3.176616
32.70042,81.77173,-0.08178614,0.9697599,3.170157
32.75333,77.95727,-0.1254428,0.9699246,3.170157
32.80206,76.94007,-0.1493838,0.9699246,3.170157
32.85176,97.28386,-0.1775498,0.9699246,3.170157
32.90014,113.686,-0.1986738,0.9697599,3.163698
32.95048,97.41101,-0.200082,0.9697599,3.170157
33.00094,92.96081,-0.2085317,0.9700893,3.163698
33.05127,93.08795,-0.1916323,0.9697599,3.163698
33.10212,97.28386,-0.1620586,0.9700893,3.163698
33.1511,99.19109,-0.164875,0.9699246,3.163698
33.20089,90.54498,-0.1775498,0.9699246,3.163698
33.25124,84.569,-0.2057153,0.9699246,3.163698
33.30208,83.67896,-0.2690883,0.9699246,3.157239
33.35202,82.91606,-0.3578099,0.9697599,3.157239
33.40118,82.53461,-0.411325,0.9699246,3.157239
33.45085,81.26313,-0.4479402,0.9699246,3.157239
33.50064,78.08442,-0.460615,0.9697599,3.157239
33.55148,90.41783,-0.4366741,0.9697599,3.157239
33.60126,116.8647,-0.3521771,0.9699246,3.157239
33.65089,113.1774,-0.1493838,0.9697599,3.15078
33.70089,93.978,0.008344177,0.9697599,3.15078
33.75026,89.90925,0.1491727,0.9697599,3.15078
33.80105,88.63776,0.2815515,0.9699246,3.157239
33.85226,96.01237,0.3815398,0.9699246,3.15078
33.90101,96.77527,0.4787111,0.9697599,3.15078
33.95072,86.60338,0.5617999,0.9697599,3.15078
34.00105,81.26313,0.6293975,0.9699246,3.15078
34.05226,81.64457,0.6913623,0.9699246,3.15078
34.10213,79.3559,0.7378354,0.9699246,3.15078
34.15074,79.3559,0.7716348,0.9697599,3.15078
34.20126,78.72016,0.7941669,0.9697599,3.14432
34.25105,76.55863,0.8026171,0.9697599,3.14432
34.30114,84.3147,0.8040248,0.9699246,3.14432
34.35159,115.339,0.8026171,0.9699246,3.14432
34.40011,108.0915,0.7997997,0.9699246,3.14432
34.45113,89.0192,0.7800844,0.9700893,3.14432
34.50048,84.44184,0.7617763,0.9697599,3.14432
34.55175,85.58618,0.7406523,0.9697599,3.14432
34.60126,96.01237,0.720936,0.9699246,3.137861
34.65104,94.86804,0.6885459,0.9699246,3.137861
34.70105,83.17036,0.6533384,0.9695953,3.137861
34.75102,78.59301,0.6223565,0.9699246,3.137861
34.80138,78.84731,0.587149,0.9697599,3.131402
34.85126,78.08442,0.5392677,0.9697599,3.137861
34.901,76.55863,0.4744865,0.9697599,3.137861
34.95105,75.28716,0.4449123,0.9699246,3.131402
35.00085,86.34908,0.4139298,0.9699246,3.131402
35.05127,115.7204,0.3871725,0.9697599,3.131402
35.10117,106.4386,0.3702731,0.9699246,3.137861
35.15105,89.90925,0.3364743,0.9697599,3.131402
35.20078,84.82329,0.3195749,0.9699246,3.131402
35.25078,85.45904,0.3083088,0.9700893,3.124943
35.3023,95.63092,0.2731018,0.9697599,3.131402
35.35175,95.24948,0.2393025,0.9699246,3.124943
35.40104,81.77173,0.197054,0.9699246,3.124943
35.45104,78.59301,0.1731136,0.9699246,3.131402
35.50102,78.59301,0.140723,0.9697599,3.124943
35.55222,76.94007,0.1195985,0.9699246,3.124943
35.60177,76.43149,0.0900248,0.9699246,3.124943
35.65129,75.28716,0.04495938,0.9699246,3.124943
35.70121,91.43503,0.02383538,0.9699246,3.124943
35.75061,119.662,0.01397697,0.9699246,3.118484
35.80151,107.71,0.01538568,0.9700893,3.124943
35.85212,92.19792,0.006935981,0.9699246,3.124943
35.90104,86.34908,0.006935981,0.9699246,3.124943
35.95104,89.0192,0.01256877,0.9697599,3.118484
36.00037,96.52097,0.01961027,0.9699246,3.118484
36.05129,97.15671,0.02383538,0.9697599,3.118484
36.10189,83.67896,0.02242667,0.9697599,3.118484
36.15029,80.11879,0.02383538,0.9697599,3.112025
36.20076,78.59301,0.02242667,0.9699246,3.118484
36.25075,77.95727,0.02101847,0.9699246,3.118484
36.30175,76.94007,0.01116057,0.9697599,3.118484
36.35173,76.17719,0.004119067,0.9697599,3.112025
36.40089,90.92643,-0.01841364,0.9697599,3.118484
36.45129,120.4249,-0.02263823,0.9699246,3.118484
36.50016,108.2186,-0.009963942,0.9697599,3.112025
36.55128,92.07076,-0.009963942,0.9697599,3.112025
36.60208,89.40065,-0.007147028,0.9699246,3.112025
36.65014,87.87486,0.00271087,0.9699246,3.112025
36.70089,98.42819,0.01538568,0.9697599,3.112025
36.75291,98.1739,0.01961027,0.9700893,3.105566
36.80116,96.26666,0.01961027,0.9699246,3.105566
36.85212,82.02603,0.02101847,0.9699246,3.105566
36.90022,80.50024,0.02101847,0.9695953,3.112025
36.95128,79.61021,0.01397697,0.9697599,3.112025
37.00109,78.21156,0.005527264,0.9699246,3.105566
37.05228,76.55863,-0.005738831,0.9697599,3.112025
37.10212,74.52426,-0.01700493,0.9699246,3.112025
37.15024,105.0399,-0.02827154,0.9697599,3.105566
37.20059,119.0263,-0.03531305,0.9699246,3.105566
37.25103,99.95398,-0.02686334,0.9699246,3.105566
37.30116,89.14634,-0.02827154,0.9697599,3.105566
37.35173,87.11198,-0.01982184,0.9697599,3.105566
37.40012,88.25631,0.008344177,0.9697599,3.099106
37.45089,96.52097,0.08298329,0.9697599,3.099106
37.50036,96.64812,0.1562137,0.9697599,3.099106
37.55143,83.42466,0.2364861,0.9699246,3.099106
37.60111,79.48306,0.3111252,0.9699246,3.099106
37.65053,79.3559,0.3885807,0.9699246,3.099106
37.70103,78.59301,0.4660368,0.9697599,3.099106
37.75033,77.83012,0.5294093,0.9697599,3.099106
37.80136,76.94007,0.5843326,0.9699246,3.099106
37.85187,74.26996,0.6195396,0.9699246,3.099106
37.90036,79.73734,0.6547466,0.9697599,3.092647
37.95011,117.2462,0.6941787,0.9697599,3.099106
38.00104,107.8372,0.7293857,0.9699246,3.092647
38.05178,88.25631,0.7575517,0.9699246,3.092647
38.10155,84.82329,0.7885342,0.9697599,3.092647
38.15011,84.3147,0.8181078,0.9699246,3.092647
38.20049,95.88522,0.8490902,0.9699246,3.092647
38.25128,96.26666,0.8617646,0.9697599,3.092647
38.3015,93.59654,0.8659896,0.9697599,3.092647
38.35152,79.3559,0.8702148,0.9697599,3.092647
38.40015,78.59301,0.8659896,0.9699246,3.092647
38.45036,77.83012,0.8561317,0.9699246,3.086188
38.50015,77.70296,0.8420488,0.9697599,3.086188
38.55162,75.41429,0.8096586,0.9697599,3.092647
38.6015,74.52426,0.7899418,0.9699246,3.086188
38.65023,90.16354,0.7730429,0.9697599,3.086188
38.70028,115.0847,0.7561435,0.9697599,3.086188
38.75046,92.19792,0.7420605,0.9697599,3.086188
38.8022,84.69615,0.720936,0.9697599,3.086188
38.85111,79.10161,0.7026284,0.9697599,3.092647
38.90115,85.20473,0.6927705,0.9699246,3.086188
38.95027,94.99519,0.6786875,0.9699246,3.086188
39.00067,93.34225,0.6561553,0.9699246,3.086188
39.05179,79.3559,0.6420723,0.9699246,3.086188
39.10213,76.81293,0.6251729,0.9697599,3.079729
39.15084,75.54144,0.6110899,0.9699246,3.086188
39.20135,74.14281,0.5927823,0.9699246,3.086188
39.25044,74.14281,0.5632081,0.9697599,3.079729
39.30215,73.76136,0.5251847,0.9697599,3.086188
39.35172,72.74417,0.4970187,0.9699246,3.086188
39.40036,104.6585,0.4730783,0.9697599,3.079729
39.45115,118.2634,0.4547701,0.9697599,3.079729
39.5007,99.69969,0.4449123,0.9697599,3.079729
39.55122,87.36626,0.418155,0.9699246,3.079729
39.60163,85.33189,0.4082971,0.9697599,3.07327
39.65108,90.16354,0.404072,0.9699246,3.079729
39.70111,97.28386,0.3913977,0.9699246,3.07327
39.7511,94.61374,0.3759064,0.9697599,3.07327
39.80174,84.569,0.3533737,0.9699246,3.07327
39.85221,78.08442,0.3364743,0.9697599,3.07327
39.90023,76.68578,0.3238,0.9697599,3.07327
39.95023,76.81293,0.3111252,0.9697599,3.07327
40.00135,75.92289,0.2871843,0.9697599,3.07327
40.05209,75.54144,0.2533855,0.9699246,3.07327
40.10223,73.12562,0.2209949,0.9699246,3.07327
40.15096,87.87486,0.1928294,0.9699246,3.07327
40.20082,114.5761,0.1815633,0.9697599,3.07327
40.25064,93.46941,0.1745218,0.9699246,3.07327
40.30212,89.14634,0.1632552,0.9697599,3.06681
40.35178,88.7649,0.1604388,0.9697599,3.07327
40.40049,93.08795,0.1660721,0.9699246,3.06681
40.45026,95.88522,0.1688885,0.9697599,3.07327
40.50043,97.02956,0.1674803,0.9699246,3.06681
40.55148,81.77173,0.161847,0.9697599,3.06681
40.60209,80.62739,0.1576224,0.9699246,3.06681
40.65121,79.61021,0.1562137,0.9697599,3.06681
40.70086,79.10161,0.1463558,0.9697599,3.06681
40.75312,77.95727,0.1435394,0.9699246,3.06681
40.8018,76.94007,0.1280482,0.9697599,3.06681
40.85156,74.14281,0.09706578,0.9697599,3.06681
40.90024,88.12916,0.07734998,0.9697599,3.06681
40.95126,120.2978,0.06749209,0.9697599,3.060351
41.00104,114.9575,0.06467517,0.9697599,3.06681
41.05149,93.2151,0.06045058,0.9699246,3.060351
41.10209,88.25631,0.05904239,0.9699246,3.06681
41.15095,88.00201,0.06467517,0.9697599,3.060351
41.20072,94.10515,0.091433,0.9697599,3.060351
41.25105,98.04675,0.1294564,0.9699246,3.060351
41.30186,87.62056,0.1871961,0.9697599,3.060351
41.35209,82.91606,0.2505691,0.9697599,3.060351
41.4007,81.26313,0.3040837,0.9697599,3.060351
41.45019,80.62739,0.3956223,0.9697599,3.060351
41.50037,78.59301,0.502652,0.9697599,3.060351
41.55211,77.70296,0.6378472,0.9699246,3.060351
41.60147,75.16,0.7575517,0.9697599,3.060351
41.65079,76.94007,0.8716224,0.9699246,3.060351
41.70071,110.253,0.9659774,0.9697599,3.053892
41.75059,115.8476,1.047658,0.9697599,3.060351
41.80122,104.5313,1.085682,0.9699246,3.053892
41.85218,91.81647,1.096949,0.9697599,3.053892
41.90049,87.11198,1.108215,0.9699246,3.053892
41.95044,93.34225,1.111032,0.9697599,3.047433
42.00094,98.30104,1.105398,0.9699246,3.047433
42.05219,96.13953,1.084274,0.9699246,3.047433
42.10175,84.3147,1.051883,0.9697599,3.047433
42.15048,81.77173,1.016677,0.9697599,3.047433
42.20119,80.50024,0.9476703,0.9697599,3.047433
42.25124,79.73734,0.8688061,0.9697599,3.053892
42.30198,79.10161,0.7716348,0.9697599,3.047433
42.35151,79.86449,0.6843208,0.9697599,3.047433
42.40019,80.62739,0.5941905,0.9699246,3.047433
42.45021,114.9575,0.4829362,0.9699246,3.047433
42.50123,110.6345,0.2970422,0.9697599,3.047433
42.55223,93.46941,0.09284119,0.9697599,3.047433
42.60223,86.73053,-0.1719165,0.9697599,3.047433
42.65025,85.07759,-0.3296444,0.9697599,3.047433
42.70078,94.10515,-0.411325,0.9699246,3.047433
42.75022,96.13953,-0.5183547,0.9699246,3.047433
42.80122,95.24948,-0.6690412,0.9699246,3.047433
42.85123,81.64457,-0.9394316,0.9699246,3.047433
42.9004,78.97446,-1.318261,0.9697599,3.047433
42.95103,78.97446,-1.577385,0.9697599,3.040974
43.00068,77.06723,-1.681598,0.9699246,3.040974
43.05173,76.68578,-1.785811,0.9699246,3.040974
43.10134,78.46587,-1.806936,0.9697599,3.040974
43.15122,102.6241,-1.843551,0.9699246,3.040974
43.20097,118.3905,-1.933681,0.9697599,3.040974
43.25127,103.0055,-2.044935,0.9697599,3.040974
43.30218,92.19792,-2.160415,0.9699246,3.040974
43.35199,90.79928,-2.116758,0.9699246,3.040974
43.40021,91.43503,-2.059018,0.9699246,3.040974
43.45142,96.13953,-2.025219,0.9699246,3.040974
43.50103,97.28386,-2.004095,0.9699246,3.040974
43.55207,83.80611,-1.966072,0.9697599,3.040974
43.60171,80.88168,-1.91819,0.9697599,3.040974
43.65045,80.50024,-1.890024,0.9697599,3.040974
43.70025,79.73734,-1.870308,0.9697599,3.034515
43.75021,78.72016,-1.852,0.9697599,3.034515
43.80149,77.70296,-1.836509,0.9699246,3.034515
43.85133,96.01237,-1.837917,0.9699246,3.034515
43.90054,117.6276,-1.828059,0.9697599,3.034515
43.95034,103.1327,-1.81116,0.9697599,3.034515
44.00019,93.34225,-1.805527,0.9699246,3.034515
44.05162,90.67213,-1.790036,0.9697599,3.034515
44.10233,91.81647,-1.768912,0.9697599,3.034515
44.15096,98.04675,-1.759054,0.9699246,3.034515
44.20106,97.66531,-1.744971,0.9699246,3.034515
44.25095,86.47623,-1.725255,0.9697599,3.034515
44.30125,82.78893,-1.719622,0.9697599,3.034515
44.3512,80.62739,-1.72103,0.9697599,3.028055
44.40086,80.50024,-1.716805,0.9699246,3.034515
44.45187,78.59301,-1.716805,0.9699246,3.034515
44.50042,77.06723,-1.698498,0.9697599,3.028055
44.55111,77.83012,-1.713989,0.9699246,3.028055
44.60107,113.4317,-1.71258,0.9697599,3.034515
44.65062,114.9575,-1.685823,0.9697599,3.028055
44.70162,98.04675,-1.636533,0.9699246,3.028055
44.75325,92.07076,-1.559077,0.9699246,3.021596
44.80087,90.16354,-1.429515,0.9697599,3.021596
44.85041,92.96081,-1.308403,0.9699246,3.028055
44.90021,96.13953,-1.08026,0.9697599,3.028055
44.95247,95.75809,-0.9168994,0.9697599,3.028055
45.00133,83.29751,-0.8197276,0.9699246,3.028055
45.05109,81.64457,-0.6972067,0.9697599,3.028055
45.10086,80.11879,-0.5817273,0.9697599,3.028055
45.15128,79.3559,-0.5155378,0.9697599,3.028055
45.20145,78.21156,-0.4887805,0.9597127,3.028055
45.25149,76.55863,-0.4648396,0.9598774,3.028055
45.30042,89.78209,-0.4296326,0.9598774,3.028055
45.35118,114.4489,-0.3733011,0.9597127,3.028055
45.40074,112.9231,-0.312745,0.9598774,3.028055
45.45199,90.67213,-0.277538,0.9598774,3.028055
45.50069,87.62056,-0.2550053,0.9597127,3.028055
45.55116,86.73053,-0.2381059,0.9598774,3.028055
45.60021,96.77527,-0.2845795,0.9598774,3.034515
45.65046,97.66531,-0.3648514,0.9598774,3.034515
45.70174,95.75809,-0.4662478,0.9598774,3.034515
45.75099,81.77173,-0.5676448,0.9598774,3.034515
45.80083,80.62739,-0.6507336,0.9598774,3.040974
45.85073,80.11879,-0.6901652,0.9597127,3.034515
45.90074,79.22876,-0.7126979,0.9598774,3.040974
45.95215,77.44867,-0.7577628,0.9598774,3.040974
46.00045,77.83012,-0.8042364,0.9598774,3.040974
46.05048,111.3974,-0.8408516,0.9598774,3.047433
46.10046,113.4317,-0.8422603,0.9598774,3.047433
46.15046,94.35944,-0.8281773,0.9598774,3.047433
46.20165,86.60338,-0.8140943,0.9598774,3.047433
46.25146,83.42466,-0.7619879,0.9598774,3.053892
46.30146,92.45221,-0.6648161,0.9597127,3.053892
46.35073,95.12233,-0.5563781,0.9597127,3.060351
46.40123,94.35944,-0.446532,0.9598774,3.060351
46.45173,79.86449,-0.3578099,0.9598774,3.060351
46.50096,78.21156,-0.2845795,0.9597127,3.06681
46.55031,77.95727,-0.200082,0.9598774,3.07327
46.60025,76.68578,-0.1268516,0.9598774,3.06681
46.65129,75.41429,-0.05362064,0.9597127,3.07327
46.70147,75.79574,0.03369328,0.9597127,3.07327
46.75052,97.02956,0.1012909,0.9597127,3.079729
46.80025,119.662,0.1674803,0.9598774,3.079729
46.85025,118.8991,0.2421194,0.9598774,3.079729
46.90141,97.15671,0.2970422,0.9597127,3.086188
46.95225,92.57936,0.3322497,0.9597127,3.092647
47.00085,91.05358,0.3378825,0.9598774,3.092647
47.05141,97.15671,0.3195749,0.9598774,3.092647
47.10025,99.57254,0.2829597,0.9597127,3.099106
47.15092,96.90242,0.2069124,0.9597127,3.099106
47.20146,84.82329,0.1364979,0.9600421,3.105566
47.25101,81.26313,0.09424939,0.9597127,3.105566
47.30079,80.50024,0.06326698,0.9598774,3.105566
47.35061,80.62739,-0.01559673,0.9597127,3.112025
47.40025,78.46587,-0.1268516,0.9598774,3.112025
47.45247,80.11879,-0.2366977,0.9598774,3.112025
47.5006,115.4661,-0.3113368,0.9598774,3.112025
47.55038,115.0847,-0.3662596,0.9699246,3.112025
47.6012,97.66531,-0.4127332,0.9697599,3.118484
47.6512,92.19792,-0.4887805,0.9697599,3.118484
47.70193,90.16354,-0.5324372,0.9699246,3.118484
47.75132,92.96081,-0.5775027,0.9697599,3.124943
47.80115,97.28386,-0.6282009,0.9699246,3.124943
47.85123,97.15671,-0.6817155,0.9699246,3.131402
47.90076,83.29751,-0.7422721,0.9697599,3.131402
47.9515,81.39028,-0.7746627,0.9697599,3.131402
48.00098,79.3559,-0.8408516,0.9697599,3.124943
48.0504,78.21156,-0.9168994,0.9699246,3.124943
48.10124,77.95727,-0.9971713,0.9699246,3.131402
48.15115,75.79574,-1.063361,0.9699246,3.131402
48.20233,78.59301,-1.114059,0.9699246,3.131402
48.2508,115.7204,-1.125326,0.9695953,3.131402
48.3008,120.5521,-1.108426,0.9697599,3.131402
48.35139,102.6241,-1.077444,0.9697599,3.137861
48.40025,96.77527,-1.03942,0.9697599,3.131402
48.45224,96.90242,-0.9732304,0.9699246,3.137861
48.5008,95.75809,-0.8662012,0.9699246,3.137861
48.55042,96.01237,-0.7817037,0.9697599,3.137861
48.60141,98.80965,-0.6943903,0.9699246,3.137861
48.6512,85.58618,-0.5929939,0.9697599,3.137861
48.70209,83.80611,-0.5282127,0.9697599,3.14432
48.75351,81.39028,-0.4704729,0.9697599,3.14432
48.80027,81.26313,-0.4070999,0.9699246,3.137861
48.85091,80.11879,-0.3437274,0.9697599,3.14432
48.9003,77.06723,-0.3057035,0.9697599,3.137861
48.95129,80.88168,-0.2521889,0.9699246,3.14432
49.00055,114.5761,-0.1761416,0.9697599,3.14432
49.05046,117.2462,-0.1057271,0.9699246,3.137861
49.10141,99.82683,-0.04939554,0.9699246,3.14432
49.15064,95.37663,-0.007147028,0.9699246,3.14432
49.20155,94.61374,0.02383538,0.9697599,3.14432
49.2514,93.72369,0.02946817,0.9697599,3.14432
49.3008,95.63092,0.009752374,0.9699246,3.14432
49.3508,98.42819,-0.03672124,0.9697599,3.137861
49.40062,85.58618,-0.1085434,0.9697599,3.137861
49.45241,83.67896,-0.1676913,0.9697599,3.137861
49.50117,81.00883,-0.2099404,0.9697599,3.14432
49.55092,81.13599,-0.2521889,0.9697599,3.137861
49.60084,80.62739,-0.3113368,0.9699246,3.14432
49.65068,77.06723,-0.3493602,0.9699246,3.137861
49.70197,80.11879,-0.3859759,0.9697599,3.14432
49.75071,116.1019,-0.4592068,0.9699246,3.137861
49.8014,117.3734,-0.5169466,0.9697599,3.137861
49.85144,109.8716,-0.6451002,0.9699246,3.137861
49.90029,90.41783,-0.8493013,0.9697599,3.137861
49.95242,88.25631,-1.043645,0.9697599,3.137861
50.00047,92.7065,-1.160533,0.9699246,3.137861
50.05143,96.90242,-1.312627,0.9697599,3.137861
50.10142,96.52097,-1.473172,0.9699246,3.137861
50.15143,81.77173,-1.618225,0.9697599,3.137861
50.20201,78.97446,-1.683006,0.9697599,3.137861
50.25042,78.33871,-1.742154,0.9699246,3.131402
50.30042,77.95727,-1.805527,0.9697599,3.131402
50.35045,75.54144,-1.919598,0.9697599,3.137861
50.40121,74.01566,-2.305468,0.9699246,3.137861
50.45213,73.25277,-2.535018,0.9697599,3.131402
50.50142,97.79247,-2.523752,0.9699246,3.131402
50.55149,120.1706,-2.527977,0.9697599,3.131402
50.60109,98.30104,-2.526569,0.9699246,3.131402
50.65096,93.08795,-2.518119,0.9697599,3.131402
50.70221,91.43503,-2.470238,0.9697599,3.131402
50.75096,91.56216,-2.375882,0.9697599,3.124943
50.80049,94.99519,-2.240687,0.9697599,3.124943
50.85152,96.64812,-2.019586,0.9699246,3.124943
50.90096,86.60338,-1.890024,0.9697599,3.124943
50.95221,81.00883,-1.699906,0.9699246,3.124943
51.00149,78.97446,-1.46613,0.9699246,3.124943
51.05095,77.70296,-1.263337,0.9697599,3.124943
51.1007,77.57583,-1.060544,0.9697599,3.118484
51.15069,75.28716,-0.9577397,0.9699246,3.118484
51.20242,74.26996,-0.8521182,0.9699246,3.124943
51.25063,93.72369,-0.7281891,0.9697599,3.118484
51.30039,118.1362,-0.5775027,0.9695953,3.118484
51.35116,109.2358,-0.4803308,0.9697599,3.118484
51.40065,91.81647,-0.4056917,0.9699246,3.118484
51.45252,88.7649,-0.3521771,0.9697599,3.118484
51.50103,89.14634,-0.2733129,0.9699246,3.112025
51.55096,96.90242,-0.1747329,0.9695953,3.112025
51.60127,96.64812,-0.1000937,0.9697599,3.112025
51.65144,88.00201,-0.05362064,0.9697599,3.112025
51.7014,83.04321,-0.04235403,0.9697599,3.112025
51.75078,79.61021,-0.05221245,0.9699246,3.105566
51.80044,78.97446,-0.08037794,0.9699246,3.105566
51.85151,77.83012,-0.1423423,0.9697599,3.105566
51.90146,76.17719,-0.2226147,0.9699246,3.105566
51.95214,75.54144,-0.2944374,0.9699246,3.105566
52.00145,97.53816,-0.3465438,0.9697599,3.105566
52.05111,111.906,-0.3803426,0.9697599,3.099106
52.10065,94.2323,-0.4479402,0.9697599,3.099106
52.1504,85.33189,-0.5028635,0.9697599,3.105566
52.20216,79.73734,-0.5408869,0.9697599,3.099106
52.25053,91.81647,-0.5690529,0.9697599,3.099106
52.30063,94.2323,-0.6366506,0.9699246,3.092647
52.35145,92.07076,-0.7225558,0.9697599,3.099106
52.40115,79.73734,-0.7802955,0.9697599,3.092647
52.45159,75.92289,-0.8577515,0.9699246,3.092647
52.50045,74.39711,-0.9295737,0.9697599,3.099106
52.55156,74.26996,-0.9929467,0.9697599,3.092647
52.60095,74.39711,-1.046461,0.9699246,3.092647
52.65128,72.23557,-1.04787,0.9697599,3.086188
52.70228,83.04321,-1.032379,0.9697599,3.092647
52.75368,118.5177,-0.9985795,0.9697599,3.086188
52.80119,111.3974,-0.9337988,0.9699246,3.092647
52.85037,95.88522,-0.8239522,0.9697599,3.086188
52.90041,90.29069,-0.6957985,0.9697599,3.086188
52.95155,90.67213,-0.5676448,0.9699246,3.086188
53.0012,93.34225,-0.4634314,0.9697599,3.086188
53.05062,96.52097,-0.3930174,0.9699246,3.079729
53.10055,87.62056,-0.3507689,0.9699246,3.086188
53.1512,82.78893,-0.3042953,0.9699246,3.086188
53.20215,81.89888,-0.2423305,0.9697599,3.086188
53.2504,79.99165,-0.1578335,0.9697599,3.079729
53.30055,77.83012,-0.09164404,0.9697599,3.079729
53.35063,77.95727,-0.04094584,0.9697599,3.079729
53.4012,79.86449,0.004119067,0.9699246,3.079729
53.45167,111.6517,0.02101847,0.9697599,3.079729
53.50103,115.4661,0.02665178,0.9697599,3.079729
53.55102,97.79247,-0.0001055238,0.9697599,3.07327
53.60102,91.05358,-0.02967974,0.9699246,3.079729
53.65127,87.74771,-0.05925343,0.9697599,3.079729
53.7024,93.2151,-0.1071353,0.9697599,3.079729
53.75114,98.04675,-0.1662832,0.9699246,3.07327
53.80114,96.01237,-0.2352895,0.9699246,3.07327
53.85136,83.67896,-0.2873959,0.9697599,3.07327
53.90091,81.39028,-0.3380941,0.9697599,3.07327
53.95188,79.99165,-0.3887923,0.9697599,3.07327
54.00064,79.10161,-0.4479402,0.9699246,3.07327
54.05116,78.59301,-0.5211712,0.9697599,3.06681
54.10065,86.22193,-0.5873606,0.9697599,3.06681
54.15074,117.7548,-0.6732658,0.9697599,3.06681
54.20164,116.229,-0.7676212,0.9697599,3.06681
54.25106,97.53816,-0.8422603,0.9699246,3.06681
54.30106,93.08795,-0.9267573,0.9699246,3.06681
54.35126,91.05358,-0.9619643,0.9697599,3.060351
54.40041,95.75809,-0.9859052,0.9699246,3.06681
54.45225,99.06393,-1.063361,0.9697599,3.060351
54.50057,96.90242,-1.142225,0.9697599,3.060351
54.55101,84.0604,-1.226722,0.9697599,3.06681
54.60102,82.91606,-1.333752,0.9699246,3.060351
54.65042,82.78893,-1.404166,0.9697599,3.060351
54.70235,81.26313,-1.530912,0.9699246,3.060351
54.75106,80.62739,-1.578793,0.9697599,3.060351
54.80072,80.11879,-1.606959,0.9699246,3.060351
54.85038,92.57936,-1.621042,0.9697599,3.053892
54.90086,120.1706,-1.60555,0.9699246,3.053892
54.95219,100.844,-1.560485,0.9697599,3.053892
55.00056,99.95398,-1.457681,0.9697599,3.053892
55.05043,99.44539,-1.330935,0.9697599,3.053892
55.10126,99.82683,-1.140817,0.9697599,3.053892
55.15089,101.0983,-1.002805,0.9699246,3.047433
55.20226,101.0983,-0.8478931,0.9699246,3.053892
55.25074,89.78209,-0.7126979,0.9697599,3.047433
55.30101,88.63776,-0.5929939,0.9699246,3.053892
55.35057,85.71333,-0.4761062,0.9697599,3.047433
55.40039,85.33189,-0.376118,0.9699246,3.047433
55.45249,84.0604,-0.2831708,0.9699246,3.047433
55.50085,85.96764,-0.2212065,0.9697599,3.047433
55.5507,115.7204,-0.1564253,0.9697599,3.047433
55.60068,119.7892,-0.08319434,0.9699246,3.047433
55.65108,105.0399,-0.04094584,0.9697599,3.040974
55.70256,99.44539,0.01116057,0.9699246,3.047433
55.75054,97.66531,0.06890029,0.9697599,3.040974
55.8014,97.53816,0.1379061,0.9697599,3.040974
55.85135,99.82683,0.161847,0.9697599,3.040974
55.90118,100.4626,0.1632552,0.9699246,3.040974
55.95236,90.67213,0.1421312,0.9697599,3.040974
56.00118,87.49342,0.09424939,0.9697599,3.040974
56.05048,86.34908,0.006935981,0.9697599,3.040974
56.10118,84.82329,-0.08882765,0.9699246,3.040974
56.15103,83.67896,-0.1606504,0.9697599,3.040974
56.20213,83.29751,-0.2381059,0.9697599,3.034515
56.25161,111.7788,-0.2958456,0.9699246,3.034515
56.30087,115.7204,-0.3493602,0.9697599,3.034515
56.35041,99.06393,-0.4042835,0.9697599,3.034515
56.40068,95.37663,-0.4648396,0.9697599,3.034515
56.45197,91.05358,-0.5070881,0.9697599,3.028055
56.50118,95.37663,-0.5324372,0.9697599,3.034515
56.55087,100.3354,-0.5634196,0.9695953,3.034515
56.60156,97.66531,-0.6169348,0.9699246,3.034515
56.65143,86.60338,-0.6577746,0.9697599,3.034515
56.70185,83.93326,-0.6929821,0.9697599,3.028055
56.75283,82.40748,-0.716923,0.9699246,3.028055
56.80121,81.64457,-0.7450885,0.9699246,3.028055
56.8509,81.00883,-0.7929703,0.9799718,3.034515
56.90117,79.86449,-0.8352188,0.9798071,3.028055
56.95239,76.17719,-0.8338106,0.9796425,3.028055
57.001,84.82329,-0.8408516,0.9798071,3.028055
57.05077,121.4421,-0.85071,0.9798071,3.028055
57.10151,113.8132,-0.8267691,0.9798071,3.028055
57.15126,99.31824,-0.7943785,0.9798071,3.028055
57.2025,99.19109,-0.7394552,0.9796425,3.028055
57.25089,97.66531,-0.6465085,0.9798071,3.028055
57.30097,98.1739,-0.5507454,0.9798071,3.021596
57.35062,100.2083,-0.5169466,0.9796425,3.021596
57.4005,92.96081,-0.4718811,0.9799718,3.021596
57.45217,87.74771,-0.3662596,0.9799718,3.028055
57.50042,84.569,-0.2930292,0.9798071,3.021596
57.55042,83.93326,-0.2014907,0.9798071,3.021596
57.60162,82.91606,-0.1184019,0.9798071,3.021596
57.65093,82.53461,-0.07192825,0.9798071,3.021596
57.7016,80.37309,-0.04376275,0.9796425,3.021596
57.75039,79.10161,-0.03953764,0.9796425,3.021596
57.80042,78.97446,-0.05221245,0.9798071,3.015137
57.85041,114.1946,-0.07756155,0.9798071,3.021596
57.90141,103.0055,-0.1381177,0.9799718,3.015137
57.95242,94.99519,-0.2071235,0.9798071,3.015137
58.0009,94.10515,-0.2606386,0.9798071,3.015137
58.05086,94.10515,-0.2930292,0.9798071,3.015137
58.10112,98.30104,-0.3493602,0.9798071,3.015137
58.15046,98.1739,-0.3944256,0.9798071,3.015137
58.20237,86.73053,-0.4338577,0.9798071,3.015137
58.25114,84.44184,-0.4592068,0.9798071,3.015137
58.30141,82.15317,-0.5070881,0.9798071,3.015137
58.3509,80.62739,-0.5704612,0.9798071,3.015137
58.40094,79.99165,-0.6211594,0.9798071,3.015137
58.45238,78.84731,-0.6929821,0.9798071,3.008678
58.50162,76.68578,-0.7310055,0.9798071,3.008678
58.55086,81.00883,-0.7605797,0.9697599,3.015137
58.60154,108.0915,-0.8028282,0.9697599,3.008678
58.65141,115.9747,-0.8239522,0.9697599,3.008678
58.7021,99.95398,-0.8436685,0.9699246,3.015137
58.75062,93.85085,-0.8633843,0.9697599,3.008678
58.80042,92.83366,-0.8704258,0.9697599,3.008678
58.85041,92.57936,-0.8577515,0.9699246,3.008678
58.90041,95.24948,-0.8563428,0.9697599,3.002219
58.95235,95.63092,-0.8605679,0.9697599,3.008678
59.00097,84.18755,-0.8690176,0.9699246,3.008678
59.05099,81.77173,-0.8774673,0.9699246,3.008678
59.10041,80.50024,-0.9042246,0.9697599,3.002219
59.15141,79.48306,-0.9337988,0.9697599,3.008678
59.20262,78.21156,-0.9535146,0.9697599,3.008678
59.25161,75.79574,-0.984497,0.9699246,3.002219
59.30161,74.26996,-1.019704,0.9697599,3.008678
59.35112,72.36273,-1.053503,0.9697599,3.008678
59.4009,94.48659,-1.112651,0.9699246,3.002219
59.45211,117.7548,-1.119692,0.9699246,3.002219
59.50093,105.5485,-1.102793,0.9697599,3.002219
59.5507,91.94361,-1.074627,0.9699246,3.002219
59.60137,90.54498,-1.042237,0.9697599,3.002219
59.65136,89.90925,-0.9746391,0.9697599,3.002219
59.7021,93.2151,-0.9014082,0.9697599,3.002219
59.75126,95.24948,-0.7704376,0.9697599,3.002219
59.801,95.24948,-0.6436921,0.9697599,3.002219
59.85105,80.50024,-0.5197629,0.9697599,2.99576
59.90061,79.61021,-0.4239993,0.9697599,2.99576
59.95253,78.21156,-0.3395023,0.9699246,2.99576
60.00076,77.32152,-0.2578217,0.9699246,2.99576
60.05053,76.30434,-0.1916323,0.9699246,3.002219
60.10053,74.14281,-0.1493838,0.9697599,2.99576
60.15105,71.09124,-0.1226265,0.9697599,2.99576
60.20162,79.73734,-0.08037794,0.9697599,2.99576
60.25148,111.5245,-0.01137214,0.9697599,2.99576
60.30099,110.253,0.05904239,0.9697599,2.99576
60.3514,90.29069,0.1195985,0.9699246,2.99576
60.40122,86.73053,0.1731136,0.9699246,2.9893
60.45253,85.45904,0.2012791,0.9699246,2.99576
60.50153,93.34225,0.2195867,0.9697599,2.99576
60.55153,95.37663,0.2209949,0.9697599,2.99576
60.60134,82.91606,0.2069124,0.9699246,2.99576
60.65107,78.97446,0.1773382,0.9699246,2.9893
60.702,76.94007,0.1322733,0.9697599,2.99576
60.75344,76.94007,0.07030848,0.9697599,2.99576
60.80147,77.06723,-0.004330635,0.9697599,2.99576
60.85111,75.41429,-0.08319434,0.9697599,2.9893
60.90111,73.76136,-0.1662832,0.9697599,2.9893
60.95192,71.09124,-0.2310644,0.9697599,2.9893
61.00048,102.2427,-0.2704965,0.9699246,2.9893
61.05137,109.8716,-0.3211947,0.9699246,2.9893
61.10089,93.46941,-0.3859759,0.9699246,2.9893
61.15162,82.91606,-0.4634314,0.9697599,2.982841
61.20185,77.83012,-0.5014554,0.9697599,2.9893
61.25086,83.67896,-0.5239875,0.9697599,2.9893
61.30085,91.05358,-0.55497,0.9697599,2.9893
61.35134,89.78209,-0.5972185,0.9697599,2.9893
61.40089,76.43149,-0.6366506,0.9697599,2.982841
61.45169,73.12562,-0.6803073,0.9699246,2.9893
61.50096,72.36273,-0.7338224,0.9697599,2.9893
61.55152,71.59984,-0.7802955,0.9699246,2.9893
61.60157,71.09124,-0.8478931,0.9697599,2.982841
61.65104,70.58266,-0.9042246,0.9697599,2.982841
61.7021,69.69261,-0.9675976,0.9697599,2.9893
61.75089,96.52097,-1.035195,0.9697599,2.982841
61.80087,116.8647,-1.091527,0.9697599,2.982841
61.85089,113.8132,-1.160533,0.9697599,2.982841
61.90152,87.49342,-1.237988,0.9697599,2.982841
61.95252,86.09478,-1.246438,0.9697599,2.982841
62.00137,86.34908,-1.204189,0.9699246,2.982841
62.05133,91.05358,-1.135183,0.9699246,2.982841
62.10089,93.72369,-1.052095,0.9697599,2.976382
62.15058,82.78893,-0.9760473,0.9697599,2.982841
62.20152,77.44867,-0.9028164,0.9699246,2.976382
62.25134,75.79574,-0.8070528,0.9699246,2.976382
62.30069,73.88851,-0.6943903,0.9697599,2.976382
62.35052,72.61702,-0.6070763,0.9697599,2.976382
62.40064,71.85413,-0.5211712,0.9697599,2.976382
62.45189,73.88851,-0.432449,0.9699246,2.982841
62.50098,104.9128,-0.3662596,0.9697599,2.976382
62.55146,114.7032,-0.2888041,0.9697599,2.976382
62.6012,98.42819,-0.193041,0.9697599,2.976382
62.6512,88.25631,-0.1254428,0.9697599,2.976382
62.70201,85.71333,-0.04235403,0.9697599,2.976382
62.75056,86.22193,0.05340908,0.9699246,2.976382
62.80152,93.46941,0.1336815,0.9697599,2.976382
62.85144,93.46941,0.1815633,0.9699246,2.976382
62.90117,84.0604,0.2040955,0.9699246,2.976382
62.95254,78.72016,0.2224031,0.9699246,2.976382
63.00143,77.06723,0.2139534,0.9697599,2.976382
63.05136,75.79574,0.1942376,0.9697599,2.969923
63.10142,74.65141,0.1562137,0.9699246,2.976382
63.15101,74.26996,0.091433,0.9697599,2.976382
63.20208,95.24948,0.01397697,0.9697599,2.969923
63.25131,111.7788,-0.04657914,0.9697599,2.976382
63.3013,100.9712,-0.1169931,0.9697599,2.969923
63.3513,84.82329,-0.1972656,0.9697599,2.976382
63.40097,80.11879,-0.2395141,0.9697599,2.969923
63.4522,86.34908,-0.2690883,0.9697599,2.969923
63.50161,93.34225,-0.3085199,0.9697599,2.969923
63.55164,92.19792,-0.3564017,0.9697599,2.969923
63.60086,84.0604,-0.4056917,0.9697599,2.969923
63.65088,77.44867,-0.4775144,0.9697599,2.969923
63.70196,75.79574,-0.5352541,0.9697599,2.976382
63.75109,74.90571,-0.5746858,0.9697599,2.969923
63.80114,74.52426,-0.6549582,0.9697599,2.969923
63.85101,73.37991,-0.6943903,0.9697599,2.969923
63.9011,84.18755,-0.7267809,0.9697599,2.969923
63.9521,119.662,-0.7859288,0.9697599,2.969923
64.0012,106.6929,-0.7986031,0.9699246,2.969923
64.05101,93.59654,-0.8267691,0.9699246,2.969923
64.10109,90.29069,-0.8422603,0.9697599,2.969923
64.15096,89.90925,-0.8408516,0.9699246,2.969923
64.20192,95.88522,-0.8169112,0.9695953,2.969923
64.2513,97.66531,-0.7760709,0.9699246,2.969923
64.30129,95.75809,-0.7338224,0.9697599,2.969923
64.35133,81.77173,-0.6394669,0.9697599,2.963464
64.40171,80.11879,-0.5211712,0.9699246,2.963464
64.45206,79.22876,-0.4296326,0.9697599,2.969923
64.50123,78.59301,-0.3507689,0.9699246,2.969923
64.55177,76.68578,-0.2465556,0.9699246,2.969923
64.60088,83.67896,-0.1761416,0.9697599,2.969923
64.65163,116.9919,-0.1141768,0.9697599,2.963464
64.70258,115.5933,-0.02123004,0.9699246,2.963464
64.75357,96.52097,0.04495938,0.9697599,2.963464
64.80056,96.52097,0.112557,0.9697599,2.963464
64.85149,93.46941,0.161847,0.9697599,2.969923
64.90083,96.77527,0.2026873,0.9697599,2.963464
64.95208,98.80965,0.2491609,0.9697599,2.963464
65.00133,97.66531,0.2702849,0.9697599,2.963464
65.05116,86.34908,0.2660603,0.9697599,2.963464
65.10063,82.91606,0.2477522,0.9699246,2.963464
65.1506,82.15317,0.2012791,0.9699246,2.963464
65.20261,80.62739,0.1322733,0.9697599,2.963464
65.25144,79.3559,0.05340908,0.9697599,2.963464
65.30135,82.15317,-0.03531305,0.9700893,2.963464
65.35083,113.8132,-0.07615284,0.9699246,2.957005
65.4006,112.1602,-0.09868555,0.9697599,2.957005
65.4516,94.2323,-0.1578335,0.9699246,2.957005
65.5012,89.0192,-0.2169814,0.9697599,2.963464
65.55112,85.58618,-0.2592304,0.9697599,2.957005
65.60069,95.50377,-0.3042953,0.9699246,2.957005
65.65087,95.75809,-0.3493602,0.9697599,2.957005
65.70184,90.79928,-0.3986502,0.9697599,2.957005
65.75156,80.88168,-0.4394905,0.9697599,2.957005
65.80105,80.11879,-0.4972302,0.9699246,2.957005
65.85082,77.44867,-0.5606033,0.9699246,2.957005
65.90054,76.94007,-0.6465085,0.9699246,2.957005
65.95157,75.79574,-0.7422721,0.9697599,2.957005
66.00134,74.65141,-0.80142,0.9697599,2.957005
66.05138,80.37309,-0.8633843,0.9699246,2.957005
66.1012,117.2462,-0.8943667,0.9697599,2.957005
66.15141,111.6517,-0.956331,0.9697599,2.957005
66.20235,95.75809,-1.014071,0.9699246,2.957005
66.2506,94.86804,-1.054911,0.9699246,2.950546
66.30061,94.10515,-1.068994,0.9697599,2.950546
66.3506,94.86804,-1.081668,0.9697599,2.950546
66.40093,97.28386,-1.111243,0.9699246,2.957005
66.45187,88.00201,-1.109834,0.9697599,2.957005
66.5006,84.82329,-1.076035,0.9697599,2.950546
66.5506,82.40748,-1.053503,0.9699246,2.950546
66.60056,80.88168,-1.032379,0.9699246,2.950546
66.65066,79.73734,-0.9816801,0.9697599,2.950546
66.70159,78.84731,-0.9281655,0.9695953,2.957005
66.75132,76.30434,-0.8478931,0.9697599,2.950546
66.80106,84.3147,-0.7746627,0.9697599,2.950546
66.85087,118.5177,-0.678899,0.9697599,2.950546
66.90099,114.4489,-0.5620114,0.9697599,2.950546
66.95212,96.13953,-0.4070999,0.9697599,2.950546
67.00077,94.74089,-0.2958456,0.9697599,2.950546
67.05111,92.83366,-0.2028989,0.9699246,2.950546
67.10113,95.12233,-0.1000937,0.9697599,2.950546
67.15112,99.44539,-0.02827154,0.9697599,2.950546
67.20253,89.90925,0.02946817,0.9699246,2.950546
67.25086,84.44184,0.09424939,0.9697599,2.950546
67.30119,82.40748,0.1463558,0.9697599,2.950546
67.35119,81.64457,0.1984627,0.9697599,2.950546
67.40091,80.24594,0.2393025,0.9699246,2.944087
67.45229,79.99165,0.2773264,0.9699246,2.950546
67.50102,76.43149,0.2970422,0.9697599,2.950546
67.55095,77.57583,0.3012673,0.9798071,2.950546
67.60081,97.53816,0.295634,0.9798071,2.944087
67.65148,113.9403,0.2773264,0.9798071,2.944087
67.70226,99.44539,0.2449358,0.9798071,2.950546
67.75056,90.67213,0.190013,0.9798071,2.944087
67.80167,85.96764,0.1350897,0.9798071,2.944087
67.85146,90.16354,0.09284119,0.9796425,2.944087
67.90131,95.63092,0.04636757,0.9796425,2.944087
67.95206,93.34225,-0.005738831,0.9796425,2.944087
68.00146,82.66177,-0.06066215,0.9799718,2.944087
68.05054,80.11879,-0.1099522,0.9798071,2.944087
68.10131,77.70296,-0.1578335,0.9798071,2.944087
68.15108,77.06723,-0.2099404,0.9798071,2.944087
68.20216,77.57583,-0.2719047,0.9697599,2.944087
68.25153,75.66859,-0.3380941,0.9699246,2.944087
68.30146,77.57583,-0.4028753,0.9697599,2.944087
68.35146,113.5589,-0.4831472,0.9697599,2.944087
68.40131,117.3734,-0.55497,0.9699246,2.944087
68.45271,94.74089,-0.5817273,0.9697599,2.937627
68.50153,90.03638,-0.6225675,0.9699246,2.937627
68.55099,87.74771,-0.6211594,0.9699246,2.937627
68.60144,92.45221,-0.6169348,0.9697599,2.944087
68.6513,95.24948,-0.6225675,0.9697599,2.937627
68.70254,94.74089,-0.6211594,0.9697599,2.937627
68.75369,82.40748,-0.6169348,0.9699246,2.937627
68.80157,79.86449,-0.6141179,0.9697599,2.937627
68.85162,78.21156,-0.6127096,0.9697599,2.937627
68.90146,77.57583,-0.6000354,0.9697599,2.937627
68.95168,75.66859,-0.5915852,0.9697599,2.937627
69.00156,74.77856,-0.559195,0.9699246,2.937627
69.05135,73.12562,-0.5056799,0.9699246,2.937627
69.1011,91.81647,-0.4239993,0.9697599,2.937627
69.1511,118.0091,-0.3395023,0.9697599,2.931168
69.20193,104.4042,-0.2352895,0.9697599,2.937627
69.25143,92.32506,-0.1719165,0.9697599,2.937627
69.30128,90.03638,-0.1000937,0.9699246,2.937627
69.35133,90.03638,-0.04657914,0.9697599,2.937627
69.40081,95.12233,0.02101847,0.9699246,2.931168
69.45264,95.37663,0.08016638,0.9699246,2.931168
69.50077,83.42466,0.1336815,0.9697599,2.931168
69.55067,81.39028,0.190013,0.9697599,2.931168
69.60134,77.83012,0.2449358,0.9697599,2.931168
69.65103,77.95727,0.2970422,0.9697599,2.931168
69.70165,76.17719,0.3350661,0.9699246,2.931168
69.7515,74.90571,0.3547819,0.9697599,2.931168
69.80112,74.65141,0.3730901,0.9697599,2.931168
69.85265,111.7788,0.394214,0.9697599,2.931168
69.90165,111.3974,0.3998474,0.9697599,2.924709
69.95262,92.83366,0.3857643,0.9697599,2.931168
70.00152,86.60338,0.3575988,0.9697599,2.924709
70.05143,83.67896,0.3294328,0.9697599,2.931168
70.10255,91.56216,0.295634,0.9699246,2.924709
70.15115,94.99519,0.260427,0.9697599,2.931168
70.20248,95.37663,0.2012791,0.9699246,2.924709
70.25132,82.02603,0.140723,0.9699246,2.924709
70.30143,78.97446,0.09284119,0.9699246,2.931168
70.35233,76.17719,0.05340908,0.9697599,2.924709
70.40118,75.66859,0.006935981,0.9699246,2.924709
70.45242,75.66859,-0.05925343,0.9699246,2.931168
70.50095,74.26996,-0.1085434,0.9699246,2.924709
70.55092,76.81293,-0.1606504,0.9697599,2.924709
70.60217,116.9919,-0.1972656,0.9697599,2.931168
70.65094,102.497,-0.2085317,0.9699246,2.924709
70.70254,92.32506,-0.2352895,0.9699246,2.924709
70.75092,87.36626,-0.2676801,0.9697599,2.924709
70.80068,86.47623,-0.2958456,0.9697599,2.924709
70.85217,93.72369,-0.3211947,0.9697599,2.924709
70.90059,95.63092,-0.3451356,0.9697599,2.924709
70.95197,82.66177,-0.3549935,0.9697599,2.91825
71.00168,79.22876,-0.347952,0.9697599,2.924709
71.05174,77.70296,-0.3423192,0.9697599,2.91825
71.10168,77.06723,-0.3057035,0.9697599,2.924709
71.15067,75.28716,-0.2747211,0.9699246,2.924709
71.20179,74.26996,-0.2409223,0.9699246,2.924709
71.2513,75.54144,-0.200082,0.9697599,2.924709
71.30151,114.7032,-0.1550171,0.9697599,2.924709
71.35255,116.229,-0.1099522,0.9699246,2.924709
71.40064,103.7684,-0.03812944,0.9697599,2.91825
71.45261,93.08795,0.03932607,0.9700893,2.91825
71.50088,92.19792,0.1083324,0.9699246,2.91825
71.55154,91.68932,0.2055037,0.9697599,2.91825
71.60252,97.66531,0.27451,0.9697599,2.91825
71.65067,97.53816,0.3223913,0.9697599,2.91825
71.70209,85.71333,0.3716813,0.9699246,2.924709
71.75093,82.78893,0.432238,0.9699246,2.91825
71.80077,81.51743,0.4899777,0.9697599,2.911791
71.85177,79.3559,0.5336344,0.9699246,2.91825
71.90109,78.21156,0.5547584,0.9697599,2.91825
71.95261,77.06723,0.5646168,0.9697599,2.91825
72.00134,93.72369,0.5646168,0.9699246,2.91825
72.05133,115.5933,0.5477174,0.9699246,2.91825
72.10229,107.3286,0.5082853,0.9697599,2.91825
72.15076,92.83366,0.4547701,0.9697599,2.91825
72.20191,85.33189,0.4068889,0.9697599,2.91825
72.25134,86.09478,0.3561907,0.9697599,2.91825
72.30105,94.99519,0.3012673,0.9699246,2.91825
72.35177,94.99519,0.2421194,0.9699246,2.91825
72.40169,84.82329,0.1871961,0.9699246,2.911791
72.45227,79.10161,0.1308646,0.9699246,2.91825
72.50108,77.95727,0.07312488,0.9697599,2.911791
72.55091,76.55863,0.01538568,0.9699246,2.911791
72.60265,75.03284,-0.07896975,0.9697599,2.911791
72.65141,74.90571,-0.1522007,0.9699246,2.911791
72.70249,83.42466,-0.2043071,0.9699246,2.911791
72.75307,115.9747,-0.2352895,0.9697599,2.911791
72.80154,116.229,-0.2564135,0.9699246,2.911791
72.85276,92.96081,-0.2845795,0.9699246,2.911791
72.90135,89.14634,-0.3282362,0.9699246,2.911791
72.95208,88.7649,-0.3845677,0.9697599,2.911791
73.00079,94.74089,-0.4620232,0.9697599,2.911791
73.0518,96.01237,-0.4746975,0.9697599,2.911791
73.10278,84.82329,-0.4141414,0.9697599,2.911791
73.15133,80.75454,-0.3549935,0.9697599,2.905332
73.20253,77.83012,-0.2972538,0.9699246,2.911791
73.2511,77.44867,-0.2381059,0.9697599,2.911791
73.3015,77.83012,-0.2113486,0.9697599,2.911791
73.35205,76.17719,-0.1662832,0.9697599,2.911791
73.40079,77.70296,-0.1282598,0.9697599,2.905332
73.45206,102.7513,-0.08741945,0.9699246,2.911791
73.5015,119.5349,0.01679388,0.9699246,2.905332
73.55189,103.1327,0.1224149,0.9697599,2.905332
73.60182,96.13953,0.2055037,0.9697599,2.905332
73.65178,92.96081,0.2787346,0.9699246,2.905332
73.70253,94.86804,0.3350661,0.9697599,2.905332
73.75182,98.30104,0.382948,0.9697599,2.905332
73.80183,97.41101,0.4336462,0.9697599,2.905332
73.85279,86.09478,0.467445,0.9697599,2.905332
73.90174,83.67896,0.4787111,0.9697599,2.905332
73.95284,82.15317,0.4660368,0.9697599,2.905332
74.00132,80.62739,0.453362,0.9697599,2.905332
74.05077,79.48306,0.4237882,0.9699246,2.905332
74.10261,80.24594,0.3702731,0.9697599,2.905332
74.15138,96.13953,0.3195749,0.9699246,2.905332
74.20228,116.229,0.2688767,0.9697599,2.905332
74.25103,106.5657,0.22522,0.9697599,2.905332
74.30124,93.59654,0.1717049,0.9697599,2.898872
74.35253,89.14634,0.1336815,0.9697599,2.898872
74.4008,89.14634,0.1055155,0.9697599,2.905332
74.4518,95.63092,0.07171668,0.9699246,2.898872
74.50176,96.52097,0.04495938,0.9697599,2.905332
74.55181,84.18755,0.01961027,0.9699246,2.898872
74.60287,80.50024,-0.001513721,0.9697599,2.905332
74.65102,78.72016,-0.01700493,0.9697599,2.898872
74.70211,77.83012,-0.05080373,0.9699246,2.905332
74.75182,77.06723,-0.09023584,0.9697599,2.898872
74.80157,76.17719,-0.1310762,0.9697599,2.898872
74.85284,74.52426,-0.1493838,0.9699246,2.905332
74.90132,95.88522,-0.1662832,0.9697599,2.898872
74.95203,118.8991,-0.200082,0.9697599,2.898872
75.00084,109.4901,-0.2423305,0.9697599,2.898872
75.05091,96.13953,-0.3085199,0.9699246,2.898872
75.10202,94.10515,-0.3817508,0.9699246,2.898872
75.15105,92.96081,-0.4789226,0.9699246,2.892413
75.20203,96.90242,-0.6225675,0.9697599,2.892413
75.25083,97.53816,-0.7338224,0.9699246,2.898872
75.30117,85.33189,-0.8000118,0.9697599,2.898872
75.35169,81.77173,-0.7971949,0.9697599,2.898872
75.40147,81.00883,-0.75213,0.9697599,2.898872
75.452,78.21156,-0.6986148,0.9697599,2.898872
75.50176,78.21156,-0.7056563,0.9697599,2.898872
75.55186,76.94007,-0.7155142,0.9697599,2.898872
75.60183,75.41429,-0.6817155,0.9697599,2.892413
75.65089,88.7649,-0.533846,0.9699246,2.898872
75.70193,120.0435,-0.2944374,0.9697599,2.892413
75.75137,107.0743,-0.1353013,0.9699246,2.892413
75.80129,97.66531,-0.008555225,0.9697599,2.892413
75.85245,94.99519,0.1393143,0.9699246,2.892413
75.90097,91.81647,0.2674685,0.9697599,2.892413
75.95199,94.86804,0.3491491,0.9697599,2.892413
76.00077,97.66531,0.3928058,0.9697599,2.892413
76.05162,97.28386,0.429421,0.9697599,2.892413
76.10168,82.40748,0.4730783,0.9697599,2.885954
76.15144,80.62739,0.5420841,0.9697599,2.892413
76.20252,78.97446,0.6082735,0.9697599,2.892413
76.25098,78.21156,0.6603799,0.9697599,2.892413
76.30068,76.94007,0.7026284,0.9697599,2.885954
76.35281,75.41429,0.7378354,0.9699246,2.892413
76.40168,99.06393,0.7505102,0.9697599,2.885954
76.45168,115.7204,0.7462851,0.9697599,2.885954
76.50096,100.844,0.7279775,0.9697599,2.892413
76.55126,88.00201,0.7237529,0.9699246,2.892413
76.60281,82.91606,0.7153032,0.9697599,2.885954
76.65181,85.20473,0.6941787,0.9697599,2.885954
76.7028,95.24948,0.6800962,0.9697599,2.885954
76.75328,94.99519,0.6660132,0.9699246,2.892413
76.80095,81.89888,0.6308062,0.9697599,2.885954
76.8523,78.21156,0.5801075,0.9697599,2.885954
76.90188,77.83012,0.5392677,0.9699246,2.892413
76.9524,76.30434,0.4998356,0.9695953,2.885954
77.00069,74.65141,0.4787111,0.9697599,2.885954
77.05181,74.65141,0.4702614,0.9697599,2.885954
77.10203,89.90925,0.488569,0.9697599,2.885954
77.15149,116.9919,0.5195514,0.9699246,2.885954
77.20276,112.6688,0.5463087,0.9697599,2.885954
77.25152,92.32506,0.5603917,0.9697599,2.885954
77.30136,88.7649,0.5772911,0.9697599,2.879495
77.35203,84.0604,0.6237647,0.9697599,2.885954
77.4018,93.72369,0.6829126,0.9697599,2.885954
77.45181,96.77527,0.7251611,0.9699246,2.885954
77.5018,85.58618,0.7533266,0.9699246,2.885954
77.55096,80.50024,0.7026284,0.9697599,2.885954
77.60258,78.59301,0.6096817,0.9697599,2.879495
77.6518,77.83012,0.5223683,0.9699246,2.885954
77.7018,75.03284,0.4280128,0.9699246,2.885954
77.75156,74.65141,0.3040837,0.9697599,2.879495
77.80128,75.03284,0.1491727,0.9699246,2.885954
77.85229,98.55534,-0.01559673,0.9699246,2.879495
77.90108,116.9919,-0.1676913,0.9697599,2.879495
77.95222,96.90242,-0.4366741,0.9697599,2.879495
78.00155,92.07076,-0.7225558,0.9697599,2.879495
78.05177,89.90925,-0.9380234,0.9697599,2.879495
78.10275,95.24948,-1.002805,0.9697599,2.879495
78.15125,97.15671,-1.067586,0.9697599,2.879495
78.20172,89.0192,-1.098568,0.9697599,2.879495
78.2518,81.39028,-1.159124,0.9697599,2.879495
78.3008,80.24594,-1.192923,0.9697599,2.879495
78.35185,77.06723,-1.225314,0.9697599,2.879495
78.40092,76.68578,-1.345018,0.9697599,2.879495
78.45228,77.83012,-1.594284,0.9699246,2.879495
78.50108,105.6757,-1.577385,0.9697599,2.879495
78.55103,120.8064,-1.402758,0.9697599,2.879495
78.60255,109.6173,-1.368959,0.9699246,2.879495
78.6518,95.63092,-1.463314,0.9697599,2.873036
78.70179,92.57936,-1.594284,0.9697599,2.873036
78.75191,92.57936,-1.445006,0.9697599,2.873036
78.80122,94.61374,-1.323894,0.9697599,2.873036
78.85212,96.90242,-1.299953,0.9697599,2.873036
78.90072,86.73053,-1.328118,0.9697599,2.879495
78.95177,82.53461,-1.368959,0.9697599,2.879495
79.00092,79.73734,-1.301361,0.9699246,2.879495
79.05092,77.83012,-1.264745,0.9695953,2.879495
79.10178,76.43149,-1.215456,0.9699246,2.885954
79.15176,94.2323,-1.218272,0.9697599,2.879495
79.20261,119.662,-1.207006,0.9697599,2.885954
79.25079,107.71,-1.149266,0.9699246,2.892413
79.30127,94.86804,-1.126734,0.9697599,2.892413
79.35266,87.11198,-1.087302,0.9697599,2.892413
79.40071,86.34908,-1.053503,0.9697599,2.898872
79.45255,95.75809,-1.033787,0.9699246,2.898872
79.50126,95.12233,-0.9943549,0.9697599,2.905332
79.55095,93.85085,-0.9859052,0.9697599,2.911791
79.60287,80.62739,-0.9901298,0.9697599,2.924709
79.65096,77.44867,-1.004213,0.9697599,2.931168
79.70221,76.17719,-1.104201,0.9697599,2.931168
79.75104,76.55863,-1.192923,0.9697599,2.944087
79.80098,88.38345,-1.26897,0.9697599,2.957005
79.85179,111.2702,-1.240805,0.9697599,2.963464
79.90098,102.1155,-1.235172,0.9697599,2.976382
79.95204,91.05358,-1.314035,0.9697599,2.9893
80.00146,84.18755,-1.345018,0.9697599,3.002219
80.05097,88.5106,-1.314035,0.9697599,3.015137
80.10287,96.01237,-1.368959,0.9697599,3.028055
80.15154,94.99519,-1.508379,0.9697599,3.047433
80.20267,84.0604,-1.621042,0.9699246,3.060351
80.25144,81.39028,-1.597101,0.9699246,3.079729
80.30154,78.33871,-1.618225,0.9697599,3.092647
80.35279,76.94007,-1.728071,0.9697599,3.118484
80.40111,87.74771,-1.940722,0.9697599,3.131402
80.45174,119.662,-1.943539,0.9699246,3.15078
80.50149,112.0331,-1.65484,0.9697599,3.170157
80.55154,95.63092,-1.570343,0.9695953,3.189535
80.60196,88.7649,-1.528095,0.9697599,3.208912
80.65162,86.22193,-1.461905,0.9697599,3.234749
80.70277,97.15671,-1.399941,0.9699246,3.247667
80.75343,97.9196,-1.254887,0.9697599,3.267045
80.80078,95.50377,-1.105609,0.9697599,3.286422
80.85275,80.62739,-1.053503,0.9697599,3.312259
80.90149,79.22876,-1.011254,0.9700893,3.331636
80.95226,77.32152,-0.8943667,0.9697599,3.351014
81.00103,86.22193,-0.6648161,0.9697599,3.376851
81.05135,110.6345,-0.326828,0.9697599,3.389769
81.10264,116.4833,-0.01982184,0.9697599,3.415606
81.15086,94.86804,0.161847,0.9697599,3.428524
81.20196,87.62056,0.3984392,0.9697599,3.441442
81.25186,83.67896,0.4899777,0.9697599,3.460819
81.30151,94.86804,0.5758829,0.9699246,3.473738
81.35278,97.28386,0.6195396,0.9697599,3.486656
81.4015,92.19792,0.636439,0.9699246,3.499574
81.45278,82.53461,0.6575635,0.9700893,3.512493
81.50146,79.73734,0.6913623,0.9697599,3.53187
81.5513,79.3559,0.7237529,0.9697599,3.544789
81.6025,78.72016,0.7519184,0.9697599,3.551248
81.65128,94.2323,0.7800844,0.9697599,3.564166
81.702,119.2806,0.8096586,0.9697599,3.577085
81.75078,107.4557,0.8335985,0.9697599,3.590003
81.80178,94.10515,0.8462738,0.9697599,3.602921
81.85252,82.91606,0.8631732,0.9699246,3.615839
81.90115,90.67213,0.8716224,0.9697599,3.628757
81.95226,97.66531,0.8871142,0.9697599,3.648135
82.00103,96.13953,0.8955634,0.9697599,3.654594
82.05103,83.42466,0.9040136,0.9697599,3.667513
82.10178,80.11879,0.9124628,0.9699246,3.673972
82.15178,79.3559,0.9152792,0.9697599,3.68689
82.20251,77.83012,0.9110551,0.9699246,3.699808
82.25102,79.3559,0.9040136,0.9699246,3.706268
82.30098,114.4489,0.8955634,0.9697599,3.712727
82.35197,111.3974,0.8871142,0.9699246,3.725645
82.40182,96.52097,0.8744388,0.9697599,3.732104
82.4529,84.0604,0.8673984,0.9699246,3.745023
82.50178,80.88168,0.8659896,0.9697599,3.751482
82.55177,93.2151,0.8631732,0.9697599,3.751482
82.60191,94.99519,0.8561317,0.9699246,3.757941
82.65128,80.75454,0.8490902,0.9699246,3.7644
82.70225,79.3559,0.8420488,0.9699246,3.7644
82.75085,77.44867,0.8251494,0.9697599,3.770859
82.80197,76.30434,0.812475,0.9697599,3.770859
82.85202,75.79574,0.7885342,0.9697599,3.770859
82.90144,101.6069,0.7364272,0.9697599,3.777318
82.95248,120.1706,0.6829126,0.9697599,3.783778
83.00182,106.5657,0.6631963,0.9697599,3.783778
83.05129,91.05358,0.6322144,0.9697599,3.783778
83.10229,86.73053,0.5955987,0.9697599,3.790237
83.15182,91.05358,0.5688414,0.9697599,3.790237
83.20185,98.55534,0.530818,0.9699246,3.790237
83.25196,98.04675,0.4547701,0.9699246,3.790237
83.30085,84.569,0.368865,0.9697599,3.803155
83.35185,81.00883,0.3026755,0.9697599,3.796696
83.40189,79.73734,0.1787464,0.9697599,3.796696
83.45244,78.33871,-0.03249613,0.9699246,3.796696
83.50101,82.78893,-0.1845913,0.9697599,3.790237
83.55173,109.4901,-0.2437392,0.9697599,3.796696
83.60284,122.4593,-0.2789462,0.9697599,3.796696
83.65102,99.95398,-0.3014789,0.9697599,3.790237
83.70302,93.46941,-0.3887923,0.9699246,3.790237
83.75111,91.43503,-0.4310408,0.9697599,3.783778
83.80144,92.57936,-0.4225911,0.9697599,3.790237
83.85185,98.30104,-0.3845677,0.9699246,3.796696
83.90121,99.44539,-0.3254193,0.9697599,3.796696
83.95242,84.18755,-0.2437392,0.9697599,3.796696
84.00119,82.40748,-0.228248,0.9697599,3.790237
84.05194,79.73734,-0.2803544,0.9700893,3.790237
84.10258,79.48306,-0.5775027,0.9699246,3.790237
84.1511,91.05358,-0.7141061,0.9697599,3.783778
84.20284,114.9575,-0.6127096,0.9699246,3.783778
84.25092,122.0779,-0.4535735,0.9697599,3.777318
84.30114,99.69969,-0.2592304,0.9697599,3.783778
84.3521,92.96081,-0.01559673,0.9697599,3.796696
84.40192,89.5278,0.1519891,0.9697599,3.796696
84.45184,97.9196,0.3139416,0.9699246,3.790237
84.50124,99.06393,0.4364626,0.9697599,3.790237
84.55124,96.64812,0.5251847,0.9699246,3.783778
84.6025,83.55181,0.6040484,0.9697599,3.777318
84.65108,81.26313,0.6885459,0.9699246,3.783778
84.70191,80.88168,0.7589599,0.9697599,3.790237
84.75366,79.73734,0.8040248,0.9697599,3.790237
84.80157,79.73734,0.8561317,0.9697599,3.770859
84.85268,101.7341,0.9096463,0.9699246,3.777318
84.90089,121.4421,0.9673861,0.9699246,3.770859
84.95245,95.37663,1.006818,0.9699246,3.777318
85.00121,89.0192,1.044842,0.9697599,3.770859
85.05179,84.44184,1.077233,0.9699246,3.7644
85.10201,98.6825,1.108215,0.9697599,3.7644
85.15198,100.2083,1.13638,0.9697599,3.770859
85.20273,92.57936,1.151872,0.9697599,3.757941
85.25129,81.00883,1.160321,0.9697599,3.757941
85.30101,79.73734,1.165954,0.9697599,3.757941
85.35223,78.97446,1.171588,0.9697599,3.757941
85.40201,76.55863,1.174404,0.9697599,3.751482
85.45194,83.67896,1.168771,0.9699246,3.751482
85.50105,113.686,1.142014,0.9699246,3.745023
85.55132,111.5245,1.105398,0.9697599,3.745023
85.60268,94.74089,1.06315,0.9699246,3.738563
85.65156,82.02603,1.022309,0.9697599,3.732104
85.70249,81.64457,0.9955521,0.9697599,3.732104
85.75196,94.48659,0.9730188,0.9697599,3.725645
85.80194,95.24948,0.9378124,0.9699246,3.725645
85.85189,88.89205,0.8997884,0.9699246,3.719186
85.90158,81.26313,0.8476815,0.9697599,3.719186
85.95287,79.3559,0.7955756,0.9697599,3.719186
86.0013,77.83012,0.7181196,0.9699246,3.712727
86.05125,75.66859,0.6448887,0.9697599,3.706268
86.10188,84.3147,0.5801075,0.9699246,3.706268
86.15188,121.5692,0.5294093,0.9697599,3.699808
86.20268,110.3802,0.4702614,0.9697599,3.699808
86.25132,93.34225,0.3998474,0.9699246,3.693349
86.302,86.85767,0.3153504,0.9699246,3.693349
86.35288,89.5278,0.2590188,0.9697599,3.693349
86.40159,97.28386,0.1787464,0.9697599,3.68689
86.45286,97.66531,0.07312488,0.9699246,3.68689
86.50108,85.20473,-0.01841364,0.9699246,3.680431
86.55109,83.17036,-0.09164404,0.9699246,3.680431
86.60233,81.39028,-0.1268516,0.9697599,3.673972
86.65087,79.3559,-0.1662832,0.9697599,3.673972
86.70198,78.97446,-0.1986738,0.9697599,3.667513
86.75085,91.56216,-0.2437392,0.9695953,3.667513
86.80183,124.3665,-0.2817626,0.9697599,3.667513
86.85246,105.6757,-0.2873959,0.9700893,3.667513
86.90192,98.80965,-0.3014789,0.9697599,3.661053
86.95183,95.75809,-0.3028871,0.9697599,3.661053
87.00115,94.10515,-0.3000702,0.9697599,3.648135
87.05085,98.80965,-0.2972538,0.9697599,3.648135
87.10238,99.95398,-0.3000702,0.9699246,3.648135
87.15169,87.87486,-0.3155614,0.9697599,3.641676
87.20296,85.96764,-0.333869,0.9699246,3.641676
87.2516,83.93326,-0.3423192,0.9697599,3.635217
87.30116,83.93326,-0.3634432,0.9699246,3.635217
87.35223,81.77173,-0.3789344,0.9699246,3.628757
87.40193,89.65494,-0.4239993,0.9699246,3.628757
87.45286,119.662,-0.4296326,0.9699246,3.622298
87.5013,121.5692,-0.4014671,0.9697599,3.615839
87.55107,106.9472,-0.3775262,0.9697599,3.615839
87.60222,97.66531,-0.2803544,0.9699246,3.60938
87.65166,92.07076,-0.150792,0.9699246,3.60938
87.70243,96.39381,0.00271087,0.9697599,3.602921
87.75208,98.80965,0.2280364,0.9699246,3.602921
87.80183,100.4626,0.3716813,0.9699246,3.602921
87.85259,86.47623,0.4970187,0.9699246,3.596462
87.90118,84.18755,0.6096817,0.9699246,3.596462
87.95222,82.28033,0.6955869,0.9699246,3.590003
88.00195,80.75454,0.7688178,0.9699246,3.590003
88.05183,80.11879,0.80825,0.9699246,3.590003
88.10282,84.569,0.854723,0.9699246,3.590003
88.15155,117.6276,0.8927469,0.9697599,3.583544
88.20281,119.1534,0.9237294,0.9798071,3.577085
88.2515,96.90242,0.9476703,0.9798071,3.577085
88.3009,90.54498,0.9730188,0.9798071,3.577085
88.3524,89.5278,0.9969597,0.9798071,3.570625
88.40193,98.30104,1.020901,0.9798071,3.564166
88.4527,99.44539,1.034984,0.9798071,3.570625
88.50145,97.9196,1.039209,0.9798071,3.557707
88.55149,84.0604,1.0378,0.9798071,3.557707
88.60268,82.66177,1.026534,0.9798071,3.551248
88.65144,81.77173,1.00541,0.9799718,3.551248
88.70296,80.24594,0.9673861,0.9799718,3.551248
88.75299,78.59301,0.9349959,0.9798071,3.544789
88.80171,81.64457,0.8969721,0.9798071,3.544789
88.85269,109.6173,0.8617646,0.9798071,3.538329
88.90144,115.8476,0.8335985,0.9799718,3.538329
88.95271,89.5278,0.7983921,0.9799718,3.538329
89.00117,82.15317,0.7645932,0.9798071,3.53187
89.05096,86.98483,0.7322026,0.9798071,3.53187
89.10223,97.15671,0.6984038,0.9798071,3.525411
89.1518,96.77527,0.6462969,0.9799718,3.525411
89.20269,93.34225,0.5913741,0.9799718,3.525411
89.25194,80.50024,0.5406759,0.9798071,3.518952
89.30172,78.97446,0.4716696,0.9798071,3.518952
89.35219,78.21156,0.4209713,0.9799718,3.512493
89.40094,77.95727,0.3463322,0.9798071,3.512493
89.45295,75.79574,0.2660603,0.9798071,3.506034
89.50175,76.17719,0.1914212,0.9798071,3.506034
89.55195,114.9575,0.1308646,0.9697599,3.499574
89.60216,118.772,0.09424939,0.9697599,3.506034
89.6516,94.2323,0.06749209,0.9699246,3.493115
89.70277,91.56216,0.03369328,0.9699246,3.499574
89.75179,89.90925,0.01820208,0.9697599,3.493115
89.80177,94.48659,0.02101847,0.9697599,3.493115
89.8522,98.80965,0.008344177,0.9700893,3.486656
89.90194,88.38345,-0.009963942,0.9699246,3.486656
89.95238,82.91606,-0.01278034,0.9699246,3.486656
90.00094,82.02603,-0.02123004,0.9699246,3.480197
90.05178,80.88168,-0.02827154,0.9700893,3.480197
90.10243,79.73734,-0.03812944,0.9699246,3.480197
90.15131,78.59301,-0.04517094,0.9697599,3.473738
90.20289,79.73734,-0.07192825,0.9699246,3.473738
90.25149,119.2806,-0.09586915,0.9697599,3.467279
90.30174,123.8579,-0.1043189,0.9697599,3.467279
90.35254,99.44539,-0.1155849,0.9699246,3.473738
90.40118,93.34225,-0.1282598,0.9697599,3.460819
90.45246,90.54498,-0.1367095,0.9699246,3.460819
90.50094,93.85085,-0.1367095,0.9697599,3.460819
90.5514,99.82683,-0.1338926,0.9697599,3.45436
90.60246,97.9196,-0.1282598,0.9697599,3.45436
90.65092,83.67896,-0.1113604,0.9699246,3.45436
90.70219,81.39028,-0.07756155,0.9699246,3.45436
90.75121,80.11879,-0.05362064,0.9699246,3.447901
90.80093,80.11879,-0.01559673,0.9697599,3.447901
90.85239,78.21156,0.01961027,0.9699246,3.441442
90.90093,76.17719,0.07875818,0.9699246,3.441442
90.952,103.6413,0.2026873,0.9699246,3.441442
91.00148,121.315,0.3026755,0.9697599,3.441442
91.05135,103.0055,0.380131,0.9697599,3.434983
91.10248,94.74089,0.429421,0.9699246,3.434983
91.15196,86.73053,0.4744865,0.9699246,3.434983
91.20274,88.63776,0.537859,0.9697599,3.434983
91.2516,98.42819,0.5772911,0.9699246,3.428524
91.30161,97.41101,0.615315,0.9699246,3.428524
91.35252,95.63092,0.650522,0.9699246,3.428524
91.40089,82.02603,0.6871372,0.9697599,3.422065
91.4529,81.26313,0.7237529,0.9699246,3.422065
91.50159,80.88168,0.7533266,0.9697599,3.422065
91.55092,79.86449,0.770226,0.9697599,3.422065
91.60289,78.59301,0.7829008,0.9697599,3.422065
91.65093,88.63776,0.7955756,0.9697599,3.422065
91.70222,116.6105,0.8096586,0.9697599,3.415606
91.75182,113.9403,0.8251494,0.9697599,3.415606
91.80117,94.61374,0.8307821,0.9699246,3.409146
91.85306,87.11198,0.8392323,0.9699246,3.409146
91.90172,85.58618,0.8476815,0.9699246,3.409146
91.95277,97.15671,0.8448651,0.9697599,3.409146
92.00106,97.28386,0.8350073,0.9697599,3.409146
92.05206,83.67896,0.8209242,0.9699246,3.409146
92.10204,81.26313,0.8026171,0.9697599,3.409146
92.15192,80.11879,0.7829008,0.9697599,3.402687
92.20239,80.24594,0.7561435,0.9699246,3.402687
92.25117,79.86449,0.7293857,0.9699246,3.396228
92.30093,77.83012,0.6913623,0.9699246,3.396228
92.35191,77.06723,0.6448887,0.9697599,3.402687
92.40119,90.29069,0.6209478,0.9699246,3.396228
92.45193,118.5177,0.5998238,0.9699246,3.396228
92.50185,107.9643,0.5758829,0.9699246,3.389769
92.5517,92.7065,0.5322262,0.9697599,3.389769
92.60298,83.67896,0.5111017,0.9697599,3.389769
92.65148,94.99519,0.4970187,0.9699246,3.389769
92.7024,98.42819,0.4744865,0.9699246,3.389769
92.7531,97.79247,0.4491374,0.9697599,3.38331
92.8013,84.0604,0.4209713,0.9697599,3.38331
92.85219,81.64457,0.3998474,0.9700893,3.38331
92.90096,81.00883,0.3773147,0.9700893,3.38331
92.95197,79.10161,0.3505574,0.9697599,3.376851
93.00159,78.59301,0.3364743,0.9699246,3.376851
93.05154,77.83012,0.295634,0.9700893,3.376851
93.1022,76.30434,0.2449358,0.9699246,3.376851
93.15198,81.26313,0.2139534,0.9699246,3.376851
93.20299,119.662,0.1984627,0.9697599,3.370391
93.25121,121.9507,0.1928294,0.9699246,3.370391
93.30146,98.04675,0.1801546,0.9699246,3.370391
93.35307,94.10515,0.1773382,0.9699246,3.370391
93.40146,93.34225,0.1857879,0.9699246,3.370391
93.453,96.64812,0.1942376,0.9699246,3.370391
93.50114,99.06393,0.2083206,0.9699246,3.370391
93.55119,99.69969,0.2294446,0.9697599,3.363932
93.60196,85.45904,0.2716931,0.9699246,3.370391
93.65148,83.93326,0.3294328,0.9699246,3.363932
93.703,80.62739,0.394214,0.9699246,3.363932
93.75134,80.11879,0.4505455,0.9697599,3.357473
93.80138,78.59301,0.4998356,0.9699246,3.357473
93.85234,78.84731,0.5392677,0.9699246,3.357473
93.90192,76.17719,0.5829244,0.9699246,3.357473
93.95202,91.56216,0.6350308,0.9699246,3.357473
94.00117,123.8579,0.6815044,0.9697599,3.357473
94.05099,108.0915,0.7279775,0.9697599,3.357473
94.10218,91.81647,0.7645932,0.9699246,3.351014
94.15097,92.7065,0.7913505,0.9699246,3.351014
94.2029,92.32506,0.8279657,0.9699246,3.351014
94.25171,97.53816,0.8519067,0.9700893,3.351014
94.30177,98.30104,0.8688061,0.9699246,3.351014
94.35266,98.80965,0.8772563,0.9699246,3.344555
94.40133,85.58618,0.8716224,0.9697599,3.344555
94.45245,83.80611,0.8603569,0.9699246,3.344555
94.50196,82.15317,0.8448651,0.9699246,3.344555
94.55167,82.53461,0.8195165,0.9699246,3.344555
94.60303,80.24594,0.7927592,0.9697599,3.344555
94.65123,77.83012,0.7519184,0.9699246,3.338095
94.70229,76.55863,0.7110781,0.9699246,3.344555
94.75198,98.6825,0.6674214,0.9700893,3.338095
94.8017,118.0091,0.6378472,0.9699246,3.344555
94.85199,116.3562,0.615315,0.9700893,3.338095
94.90179,86.73053,0.5885572,0.9697599,3.338095
94.9528,84.44184,0.5674332,0.9697599,3.338095
95.00145,91.43503,0.5392677,0.9697599,3.338095
95.05099,98.1739,0.5040601,0.9699246,3.331636
95.10266,96.13953,0.467445,0.9699246,3.338095
95.15128,82.15317,0.429421,0.9699246,3.331636
95.20314,82.02603,0.4026637,0.9697599,3.331636
95.25128,80.11879,0.3646404,0.9697599,3.331636
95.30115,78.97446,0.330841,0.9699246,3.331636
95.35288,77.57583,0.3012673,0.9697599,3.325177
95.40112,78.72016,0.2646521,0.9699246,3.331636
95.45212,73.88851,0.211137,0.9699246,3.325177
95.50195,79.3559,0.1688885,0.9699246,3.325177
95.55167,114.1946,0.1533973,0.9697599,3.325177
95.60271,120.0435,0.1491727,0.9699246,3.325177
95.65195,96.13953,0.1435394,0.9699246,3.325177
95.70253,91.18073,0.140723,0.9699246,3.318718
95.75176,90.29069,0.1379061,0.9699246,3.318718
95.80149,90.67213,0.1421312,0.9697599,3.318718
95.85232,97.9196,0.1463558,0.9700893,3.318718
95.90163,97.9196,0.1491727,0.9699246,3.318718
95.95314,87.11198,0.1519891,0.9699246,3.318718
96.00127,81.77173,0.1548055,0.9699246,3.312259
96.05141,79.61021,0.1590306,0.9699246,3.312259
96.10278,79.61021,0.1646634,0.9697599,3.312259
96.15112,79.3559,0.1660721,0.9697599,3.312259
96.20213,77.83012,0.1590306,0.9699246,3.312259
96.25165,74.90571,0.1576224,0.9699246,3.312259
96.30131,82.91606,0.1548055,0.9699246,3.312259
96.35252,116.3562,0.1590306,0.9699246,3.312259
96.40112,115.8476,0.1801546,0.9699246,3.3058
96.45294,94.48659,0.2266282,0.9699246,3.3058
96.50169,89.90925,0.2787346,0.9699246,3.312259
96.5517,89.5278,0.3618234,0.9699246,3.3058
96.60292,96.64812,0.4547701,0.9699246,3.3058
96.65189,98.1739,0.5322262,0.9700893,3.3058
96.70294,85.58618,0.6181314,0.9699246,3.3058
96.75352,82.53461,0.6829126,0.9697599,3.3058
96.8014,81.26313,0.7434687,0.9697599,3.3058
96.85239,79.99165,0.7871254,0.9700893,3.3058
96.90117,78.59301,0.8166991,0.9697599,3.29934
96.95236,77.32152,0.8490902,0.9699246,3.3058
97.0019,76.17719,0.8673984,0.9697599,3.29934
97.05194,76.94007,0.8899305,0.9700893,3.29934
97.10269,101.4798,0.9082376,0.9699246,3.29934
97.15141,107.9643,0.9237294,0.9699246,3.29934
97.2024,91.30788,0.9406288,0.9697599,3.29934
97.25192,85.96764,0.9476703,0.9700893,3.29934
97.30221,84.44184,0.9561195,0.9699246,3.29934
97.3522,95.24948,0.953303,0.9699246,3.29934
97.40169,98.80965,0.9448539,0.9699246,3.29934
97.4521,97.15671,0.9335873,0.9699246,3.29934
97.5012,83.93326,0.9124628,0.9699246,3.292881
97.55119,81.77173,0.882889,0.9697599,3.292881
97.60241,81.26313,0.8533154,0.9699246,3.292881
97.6518,81.26313,0.8307821,0.9700893,3.286422
97.70274,80.11879,0.8012084,0.9699246,3.286422
97.75212,78.46587,0.7575517,0.9697599,3.286422
97.80165,77.83012,0.7124863,0.9699246,3.292881
97.85217,103.2598,0.6688296,0.9699246,3.286422
97.90193,114.9575,0.636439,0.9699246,3.292881
97.95252,92.19792,0.601232,0.9699246,3.286422
98.00124,87.11198,0.551942,0.9699246,3.286422
98.05185,86.60338,0.4998356,0.9699246,3.286422
98.10238,98.04675,0.4547701,0.9699246,3.286422
98.15194,97.53816,0.4012555,0.9699246,3.279963
98.20315,94.86804,0.3547819,0.9699246,3.279963
98.25161,82.78893,0.3181667,0.9699246,3.279963
98.30138,81.39028,0.2857761,0.9699246,3.279963
98.35239,81.00883,0.246344,0.9699246,3.279963
98.40118,79.73734,0.2209949,0.9697599,3.279963
98.45311,78.97446,0.1857879,0.9699246,3.279963
98.50194,77.83012,0.1463558,0.9699246,3.279963
98.55163,85.96764,0.1252318,0.9697599,3.279963
98.60268,122.8407,0.1139652,0.9699246,3.279963
98.6511,115.339,0.112557,0.9699246,3.279963
98.70301,100.5897,0.1026991,0.9699246,3.279963
98.75181,97.02956,0.09988269,0.9697599,3.273504
98.80133,95.63092,0.1026991,0.9697599,3.273504
98.8531,96.26666,0.1069242,0.9699246,3.273504
98.90193,100.9712,0.1097406,0.9699246,3.267045
98.95302,100.0811,0.1083324,0.9699246,3.273504
99.00151,86.34908,0.1069242,0.9699246,3.267045
99.05128,85.58618,0.1055155,0.9699246,3.267045
99.10242,82.91606,0.09988269,0.9699246,3.273504
99.15176,81.77173,0.09988269,0.9699246,3.273504
99.20288,81.39028,0.1055155,0.9697599,3.267045
99.25121,79.10161,0.1280482,0.9699246,3.267045
99.30101,78.97446,0.1519891,0.9699246,3.260585
99.35211,96.52097,0.2195867,0.9697599,3.267045
99.40162,120.9335,0.2871843,0.9699246,3.267045
99.4526,98.30104,0.3674567,0.9699246,3.260585
99.50192,95.50377,0.4477292,0.9699246,3.267045
99.55176,94.61374,0.516735,0.9699246,3.267045
99.60297,98.42819,0.5899659,0.9697599,3.260585
99.65154,99.57254,0.6589717,0.9700893,3.260585
99.70215,99.19109,0.7068535,0.9700893,3.260585
99.75226,87.62056,0.749102,0.9699246,3.260585
99.80177,85.58618,0.7913505,0.9699246,3.260585
99.85251,83.29751,0.8166991,0.9700893,3.260585
99.90115,82.53461,0.8392323,0.9699246,3.254126
99.95228,81.89888,0.8603569,0.9699246,3.260585
100.0023,80.11879,0.8716224,0.9699246,3.254126
100.0523,76.94007,0.8772563,0.9699246,3.254126
100.1029,81.39028,0.8857055,0.9699246,3.254126
100.1516,114.7032,0.8941557,0.9697599,3.254126
100.2026,110.6345,0.9026048,0.9699246,3.254126
100.2519,92.57936,0.90683,0.9699246,3.254126
100.3014,89.14634,0.9040136,0.9699246,3.254126
100.3521,91.05358,0.8997884,0.9699246,3.254126
100.4021,98.30104,0.8885219,0.9697599,3.247667
100.4531,98.80965,0.8730311,0.9699246,3.247667
100.5016,96.90242,0.8533154,0.9699246,3.247667
100.5516,83.67896,0.8307821,0.9697599,3.247667
100.6028,83.67896,0.8110663,0.9699246,3.247667
100.6515,82.02603,0.784309,0.9699246,3.247667
100.7029,82.53461,0.7519184,0.9699246,3.247667
100.7538,81.26313,0.7237529,0.9697599,3.247667
100.8016,79.61021,0.6800962,0.9699246,3.247667
100.8522,77.83012,0.6378472,0.9699246,3.247667
100.9011,87.62056,0.6181314,0.9699246,3.247667
100.9529,114.3218,0.5970074,0.9699246,3.247667
101.0018,105.93,0.5758829,0.9699246,3.247667
101.0523,92.96081,0.5533502,0.9699246,3.241208
101.1026,89.78209,0.537859,0.9699246,3.247667
101.1523,93.46941,0.530818,0.9697599,3.241208
101.2021,98.30104,0.5209596,0.9699246,3.241208
101.2518,98.30104,0.5040601,0.9700893,3.241208
101.3014,98.30104,0.4927941,0.9697599,3.241208
101.3525,84.0604,0.4787111,0.9699246,3.241208
101.4023,83.29751,0.4589953,0.9699246,3.241208
101.4522,82.02603,0.4378707,0.9699246,3.241208
101.502,80.88168,0.4139298,0.9697599,3.241208
101.5518,79.3559,0.3885807,0.9697599,3.241208
101.603,76.43149,0.3505574,0.9699246,3.234749
101.6515,75.41429,0.295634,0.9699246,3.234749
101.7028,88.5106,0.2547937,0.9699246,3.234749
101.7523,123.095,0.2266282,0.9699246,3.234749
101.8021,112.9231,0.2195867,0.9697599,3.234749
101.8531,101.2255,0.2097288,0.9699246,3.234749
101.9014,94.74089,0.2097288,0.9699246,3.234749
101.9525,94.74089,0.211137,0.9699246,3.234749
102.0013,97.15671,0.2153621,0.9697599,3.234749
102.0521,98.80965,0.211137,0.9699246,3.234749
102.1024,92.45221,0.2040955,0.9699246,3.22829
102.1519,84.569,0.2012791,0.9699246,3.22829
102.2029,85.20473,0.1942376,0.9697599,3.22829
102.2517,83.42466,0.1857879,0.9699246,3.22829
102.3017,81.77173,0.1773382,0.9699246,3.22829
102.3525,81.00883,0.1674803,0.9697599,3.22829
102.4013,78.46587,0.1463558,0.9697599,3.22829
102.4524,76.30434,0.1167821,0.9699246,3.22829
102.5017,77.95727,0.08298329,0.9697599,3.22829
102.5511,109.9987,0.05622547,0.9697599,3.22183
102.6031,118.8991,0.04918449,0.9697599,3.22829
102.652,102.6241,0.04214298,0.9699246,3.22183
102.703,91.05358,0.04355118,0.9699246,3.22183
102.7511,90.79928,0.04918449,0.9697599,3.22183
102.8016,93.34225,0.06045058,0.9699246,3.22183
102.8525,95.37663,0.06890029,0.9699246,3.22183
102.9021,92.7065,0.08439149,0.9697599,3.22183
102.9524,86.34908,0.1153739,0.9699246,3.22183
103.0016,82.40748,0.1815633,0.9697599,3.22183
103.0519,81.77173,0.2336697,0.9699246,3.22183
103.1026,78.72016,0.2970422,0.9699246,3.22183
103.1512,78.59301,0.3575988,0.9697599,3.22183
103.2021,77.32152,0.429421,0.9697599,3.215371
103.2515,75.92289,0.4843444,0.9699246,3.215371
103.3014,74.26996,0.5195514,0.9699246,3.215371
103.3531,77.95727,0.5702496,0.9699246,3.22183
103.4012,116.8647,0.6378472,0.9699246,3.215371
103.453,109.9987,0.6899541,0.9699246,3.215371
103.5017,97.02956,0.7322026,0.9699246,3.215371
103.5515,90.41783,0.7716348,0.9697599,3.215371
103.6032,88.63776,0.8068412,0.9699246,3.215371
103.6521,95.37663,0.8335985,0.9699246,3.215371
103.7031,97.28386,0.8561317,0.9699246,3.215371
103.7521,91.18073,0.8744388,0.9697599,3.215371
103.8021,85.07759,0.8857055,0.9699246,3.215371
103.8531,83.67896,0.8955634,0.9699246,3.215371
103.9016,77.44867,0.9082376,0.9699246,3.208912
103.9531,79.86449,0.9180965,0.9699246,3.208912
104.0016,78.97446,0.925137,0.9697599,3.208912
104.0514,78.72016,0.925137,0.9699246,3.208912
104.1026,76.30434,0.9195042,0.9699246,3.208912
104.1512,86.09478,0.9110551,0.9699246,3.208912
104.2021,113.4317,0.9011972,0.9699246,3.202453
104.2519,103.8956,0.8885219,0.9699246,3.208912
104.3016,88.12916,0.8673984,0.9699246,3.208912
104.3523,85.33189,0.8434575,0.9699246,3.208912
104.4011,84.44184,0.8279657,0.9697599,3.208912
104.4524,96.26666,0.8040248,0.9699246,3.202453
104.5022,94.74089,0.7660014,0.9699246,3.208912
104.5519,87.23911,0.7307944,0.9699246,3.202453
104.6031,78.59301,0.6941787,0.9699246,3.202453
104.6513,79.22876,0.6533384,0.9699246,3.202453
104.7021,77.95727,0.6237647,0.9699246,3.208912
104.7539,76.94007,0.5998238,0.9699246,3.195994
104.8014,77.32152,0.5505338,0.9699246,3.202453
104.8521,75.03284,0.4829362,0.9699246,3.202453
104.9019,82.91606,0.432238,0.9699246,3.202453
104.9524,115.2118,0.3928058,0.9699246,3.202453
105.0011,112.2874,0.368865,0.9699246,3.195994
105.0521,94.61374,0.344924,0.9699246,3.202453
105.1027,89.5278,0.3125334,0.9699246,3.195994
105.1518,86.60338,0.2998591,0.9699246,3.202453
105.2031,94.10515,0.2885925,0.9697599,3.195994
105.2519,97.66531,0.2731018,0.9700893,3.195994
105.3018,97.02956,0.260427,0.9700893,3.195994
105.3521,81.77173,0.2533855,0.9699246,3.202453
105.4013,77.70296,0.246344,0.9697599,3.195994
105.4532,80.11879,0.2364861,0.9697599,3.195994
105.5017,77.95727,0.2238118,0.9697599,3.195994
105.5521,76.94007,0.2195867,0.9697599,3.195994
105.6032,75.79574,0.2055037,0.9699246,3.195994
105.6517,74.65141,0.1829715,0.9699246,3.195994
105.7033,91.05358,0.1646634,0.9699246,3.195994
105.7514,119.2806,0.1604388,0.9697599,3.195994
105.8011,109.1087,0.161847,0.9699246,3.195994
105.8524,96.13953,0.1590306,0.9699246,3.195994
105.9011,89.90925,0.161847,0.9699246,3.189535
105.9532,93.85085,0.1674803,0.9699246,3.189535
106.0017,97.66531,0.1702967,0.9699246,3.195994
106.0515,98.30104,0.1717049,0.9699246,3.189535
106.1026,85.96764,0.1745218,0.9699246,3.189535
106.1519,83.29751,0.1914212,0.9699246,3.189535
106.2026,82.78893,0.2055037,0.9699246,3.189535
106.2521,82.40748,0.2181785,0.9699246,3.189535
106.3017,80.11879,0.2449358,0.9699246,3.189535
106.3528,79.48306,0.2674685,0.9699246,3.189535
106.4016,78.21156,0.3069007,0.9697599,3.183075
106.4528,86.60338,0.3632316,0.9699246,3.189535
106.5016,121.6964,0.4251965,0.9699246,3.183075
106.5512,113.5589,0.4857526,0.9699246,3.183075
106.6028,99.82683,0.5406759,0.9699246,3.183075
106.6513,92.83366,0.5970074,0.9699246,3.189535
106.703,92.32506,0.6561553,0.9699246,3.183075
106.7518,98.55534,0.7026284,0.9699246,3.183075
106.8022,99.95398,0.7448769,0.9699246,3.183075
106.853,99.57254,0.7800844,0.9699246,3.183075
106.9018,87.62056,0.8068412,0.9699246,3.183075
106.9531,84.44184,0.8293744,0.9697599,3.176616
107.0016,82.53461,0.8490902,0.9697599,3.183075
107.0513,82.28033,0.8645809,0.9700893,3.176616
107.1025,81.51743,0.8758475,0.9699246,3.176616
107.1513,80.37309,0.878664,0.9697599,3.176616
107.2032,78.97446,0.8800727,0.9699246,3.176616
107.2515,93.978,0.8842978,0.9699246,3.176616
107.3017,117.119,0.8842978,0.9697599,3.170157
107.3526,95.24948,0.8800727,0.9699246,3.176616
107.402,90.54498,0.8688061,0.9697599,3.176616
107.4528,88.89205,0.8589482,0.9699246,3.176616
107.5014,95.12233,0.8434575,0.9699246,3.176616
107.5515,98.6825,0.8195165,0.9699246,3.176616
107.6033,98.30104,0.7955756,0.9699246,3.176616
107.6516,85.96764,0.770226,0.9699246,3.170157
107.7027,83.04321,0.7406523,0.9699246,3.176616
107.7516,83.04321,0.7153032,0.9697599,3.176616
107.8012,82.02603,0.685729,0.9699246,3.176616
107.8523,82.15317,0.6561553,0.9699246,3.170157
107.902,78.97446,0.6167232,0.9699246,3.170157
107.9531,77.44867,0.5815162,0.9699246,3.170157
108.0013,105.5485,0.551942,0.9697599,3.170157
108.0513,119.4077,0.516735,0.9700893,3.170157
108.1023,105.0399,0.4913859,0.9699246,3.170157
108.1513,94.2323,0.4632199,0.9699246,3.170157
108.2022,91.81647,0.4435041,0.9697599,3.170157
108.2521,93.34225,0.4350544,0.9700893,3.170157
108.3024,98.42819,0.4153385,0.9699246,3.170157
108.3524,98.30104,0.382948,0.9697599,3.170157
108.4019,87.11198,0.3533737,0.9699246,3.170157
108.4531,84.18755,0.333658,0.9699246,3.163698
108.5018,83.29751,0.3209831,0.9697599,3.163698
108.5519,82.40748,0.2942258,0.9699246,3.163698
108.6029,82.02603,0.2829597,0.9697599,3.163698
108.6524,79.73734,0.2632434,0.9700893,3.163698
108.7023,80.62739,0.2421194,0.9697599,3.170157
108.7531,79.10161,0.2125452,0.9699246,3.163698
108.8016,105.5485,0.1956458,0.9699246,3.163698
108.8526,122.4593,0.190013,0.9697599,3.163698
108.9019,105.5485,0.1801546,0.9699246,3.163698
108.9529,95.24948,0.1604388,0.9697599,3.163698
109.0013,94.86804,0.161847,0.9699246,3.163698
109.0513,96.13953,0.1787464,0.9699246,3.163698
109.1026,97.66531,0.1674803,0.9700893,3.163698
109.1515,99.82683,0.1674803,0.9699246,3.163698
109.2034,87.36626,0.1688885,0.9697599,3.163698
109.2522,84.69615,0.1843797,0.9699246,3.163698
109.3024,84.44184,0.197054,0.9699246,3.163698
109.3524,83.80611,0.2153621,0.9699246,3.157239
109.4017,81.39028,0.2449358,0.9700893,3.163698
109.4522,78.59301,0.2731018,0.9699246,3.157239
109.5017,77.44867,0.3111252,0.9699246,3.157239
109.5514,78.46587,0.3702731,0.9697599,3.15078
109.6023,112.5417,0.432238,0.9697599,3.157239
109.652,118.6448,0.4913859,0.9699246,3.157239
109.7034,100.4626,0.5491256,0.9699246,3.157239
109.7521,94.61374,0.6068653,0.9697599,3.157239
109.802,93.72369,0.6631963,0.9699246,3.157239
109.8526,94.99519,0.7124863,0.9697599,3.157239
109.9015,98.80965,0.749102,0.9699246,3.157239
109.9523,98.04675,0.7871254,0.9699246,3.157239
110.0023,88.25631,0.8195165,0.9699246,3.157239
110.0519,84.18755,0.8392323,0.9699246,3.15078
110.1031,83.67896,0.8589482,0.9699246,3.15078
110.1516,83.80611,0.8702148,0.9699246,3.15078
110.2024,81.26313,0.8842978,0.9699246,3.15078
110.2514,79.73734,0.8885219,0.9700893,3.15078
110.3016,77.06723,0.8913382,0.9699246,3.15078
110.3527,81.64457,0.8927469,0.9699246,3.15078
110.4023,116.6105,0.8899305,0.9699246,3.15078
110.4532,107.5829,0.8842978,0.9699246,3.15078
110.5017,91.94361,0.8702148,0.9699246,3.15078
110.5516,87.62056,0.8533154,0.9699246,3.15078
110.6023,89.14634,0.8378236,0.9697599,3.14432
110.6512,97.28386,0.8166991,0.9699246,3.15078
110.7033,97.66531,0.7899418,0.9699246,3.15078
110.7517,84.82329,0.7660014,0.9697599,3.15078
110.8022,83.29751,0.7406523,0.9699246,3.14432
110.8527,81.00883,0.7153032,0.9699246,3.15078
110.9012,80.24594,0.6871372,0.9699246,3.14432
110.9525,79.86449,0.6631963,0.9700893,3.14432
111.0024,80.50024,0.6265811,0.9697599,3.14432
111.0516,76.68578,0.5913741,0.9700893,3.14432
111.1032,78.72016,0.5632081,0.9699246,3.14432
111.152,113.4317,0.5336344,0.9699246,3.14432
111.203,114.8304,0.5096934,0.9697599,3.14432
111.2514,93.34225,0.4857526,0.9699246,3.137861
111.3019,91.43503,0.4632199,0.9697599,3.14432
111.3532,89.65494,0.4477292,0.9697599,3.14432
111.4019,94.35944,0.4420959,0.9699246,3.137861
111.4534,95.75809,0.4251965,0.9699246,3.137861
111.502,96.77527,0.4139298,0.9699246,3.137861
111.5517,83.29751,0.4012555,0.9699246,3.137861
111.6029,81.26313,0.3815398,0.9697599,3.137861
111.6521,80.62739,0.3646404,0.9699246,3.14432
111.7023,78.97446,0.3435158,0.9699246,3.137861
111.7522,77.70296,0.3195749,0.9699246,3.137861
111.802,78.97446,0.2801428,0.9699246,3.131402
111.8523,75.16,0.2505691,0.9700893,3.137861
111.9016,98.04675,0.2209949,0.9699246,3.137861
111.9528,117.6276,0.1886043,0.9697599,3.137861
112.0016,106.0571,0.1886043,0.9697599,3.131402
112.0518,93.72369,0.1801546,0.9699246,3.137861
112.1029,92.19792,0.1787464,0.9697599,3.137861
112.1518,92.19792,0.1801546,0.9699246,3.131402
112.2029,97.9196,0.1801546,0.9699246,3.137861
112.2521,97.02956,0.1815633,0.9699246,3.137861
112.3013,86.22193,0.1801546,0.9699246,3.131402
112.3525,83.80611,0.1815633,0.9697599,3.131402
112.4013,80.88168,0.1801546,0.9699246,3.131402
112.4533,79.86449,0.17593,0.9697599,3.131402
112.5018,79.73734,0.1717049,0.9699246,3.131402
112.5516,78.21156,0.1576224,0.9700893,3.131402
112.6026,76.17719,0.1435394,0.9699246,3.131402
112.6517,82.53461,0.1167821,0.9699246,3.131402
112.7028,116.1019,0.09424939,0.9699246,3.131402
112.7531,118.2634,0.091433,0.9697599,3.131402
112.8018,101.4798,0.0900248,0.9699246,3.131402
112.8533,94.10515,0.0984745,0.9700893,3.124943
112.9013,93.59654,0.1224149,0.9699246,3.131402
112.9523,97.28386,0.1590306,0.9699246,3.124943
113.0023,99.95398,0.190013,0.9699246,3.131402
113.0522,98.30104,0.246344,0.9699246,3.124943
113.1031,85.96764,0.3040837,0.9699246,3.124943
113.1523,84.69615,0.3815398,0.9697599,3.124943
113.2028,84.3147,0.4561789,0.9697599,3.124943
113.2513,84.18755,0.5251847,0.9699246,3.124943
113.3021,82.40748,0.5941905,0.9697599,3.124943
113.3533,80.62739,0.6350308,0.9699246,3.124943
113.4018,78.97446,0.6758711,0.9699246,3.124943
113.4526,94.48659,0.7195278,0.9699246,3.124943
113.5021,119.2806,0.7561435,0.9697599,3.124943
113.5521,106.82,0.7997997,0.9699246,3.124943
113.6028,96.64812,0.8265581,0.9697599,3.118484
113.652,94.48659,0.8462738,0.9699246,3.124943
113.7031,98.6825,0.8645809,0.9699246,3.118484
113.7518,102.1155,0.8772563,0.9697599,3.118484
113.8018,99.06393,0.8885219,0.9699246,3.118484
113.8527,89.0192,0.8955634,0.9700893,3.118484
113.9021,87.49342,0.9026048,0.9700893,3.118484
113.9533,85.58618,0.90683,0.9697599,3.124943
114.0021,84.3147,0.90683,0.9697599,3.118484
114.0521,84.3147,0.90683,0.9699246,3.124943
114.1031,81.64457,0.8955634,0.9700893,3.118484
114.1519,82.66177,0.8842978,0.9699246,3.118484
114.2027,91.56216,0.8702148,0.9699246,3.118484
114.2523,118.2634,0.850499,0.9699246,3.118484
114.3018,106.3114,0.8265581,0.9699246,3.112025
114.3529,93.978,0.8012084,0.9699246,3.118484
114.4017,91.18073,0.7829008,0.9699246,3.118484
114.4526,92.07076,0.7716348,0.9699246,3.118484
114.5022,97.79247,0.7533266,0.9699246,3.118484
114.5512,98.30104,0.735019,0.9699246,3.118484
114.6024,87.74771,0.7181196,0.9697599,3.112025
114.6517,86.34908,0.7026284,0.9699246,3.118484
114.7023,81.64457,0.685729,0.9699246,3.112025
114.7513,81.00883,0.6660132,0.9699246,3.112025
114.8023,81.89888,0.6434805,0.9699246,3.112025
114.8531,80.11879,0.601232,0.9699246,3.112025
114.9023,78.21156,0.5730665,0.9699246,3.112025
114.9532,84.3147,0.5463087,0.9699246,3.112025
115.0018,115.8476,0.5251847,0.9699246,3.112025
115.0517,117.6276,0.5040601,0.9699246,3.112025
115.1033,99.31824,0.4787111,0.9699246,3.112025
115.1522,96.90242,0.4435041,0.9697599,3.112025
115.2032,94.2323,0.4195631,0.9699246,3.112025
115.2524,98.55534,0.4082971,0.9697599,3.112025
115.3022,98.6825,0.3787228,0.9697599,3.112025
115.3533,97.02956,0.3421077,0.9699246,3.112025
115.4013,88.38345,0.3153504,0.9699246,3.105566
115.4524,86.22193,0.2871843,0.9697599,3.112025
115.5022,83.67896,0.2660603,0.9697599,3.105566
115.5513,81.64457,0.2435276,0.9699246,3.112025
115.6028,81.13599,0.2097288,0.9699246,3.105566
115.6515,80.11879,0.1646634,0.9699246,3.105566
115.7023,77.83012,0.140723,0.9699246,3.105566
115.752,100.7169,0.1224149,0.9699246,3.105566
115.8023,119.5349,0.1055155,0.9700893,3.105566
115.8523,116.229,0.1012909,0.9699246,3.105566
115.9015,98.6825,0.09565759,0.9699246,3.105566
115.9524,98.1739,0.09706578,0.9699246,3.105566
116.0024,97.9196,0.1069242,0.9699246,3.105566
116.0517,100.9712,0.1139652,0.9699246,3.105566
116.1033,101.4798,0.1336815,0.9697599,3.105566
116.1522,90.41783,0.1505809,0.9699246,3.105566
116.2024,88.89205,0.17593,0.9699246,3.105566
116.2524,87.49342,0.2139534,0.9699246,3.099106
116.302,85.58618,0.2787346,0.9697599,3.099106
116.3529,84.18755,0.3519655,0.9697599,3.099106
116.4017,82.78893,0.4223796,0.9697599,3.105566
116.4532,81.39028,0.4773028,0.9697599,3.099106
116.5015,80.24594,0.5420841,0.9699246,3.099106
116.5516,103.0055,0.6124981,0.9699246,3.099106
116.6034,120.0435,0.6758711,0.9699246,3.099106
116.6519,102.7513,0.7293857,0.9699246,3.099106
116.7028,98.1739,0.770226,0.9699246,3.099106
116.7533,98.9368,0.8068412,0.9697599,3.099106
116.8018,99.57254,0.8392323,0.9699246,3.099106
116.8528,101.4798,0.8575394,0.9697599,3.092647
116.9023,99.82683,0.8702148,0.9697599,3.099106
116.9529,91.05358,0.8814803,0.9699246,3.099106
117.0019,89.0192,0.8913382,0.9697599,3.099106
117.0519,86.73053,0.8983797,0.9699246,3.092647
117.1029,86.85767,0.9011972,0.9699246,3.092647
117.1514,85.33189,0.9054213,0.9699246,3.092647
117.2034,82.15317,0.9026048,0.9699246,3.092647
117.2524,79.3559,0.8983797,0.9699246,3.092647
117.3025,86.85767,0.8899305,0.9697599,3.099106
117.3532,116.7376,0.8800727,0.9699246,3.092647
117.4013,113.3046,0.8688061,0.9699246,3.092647
117.4527,92.7065,0.8476815,0.9699246,3.092647
117.5014,92.07076,0.8237406,0.9699246,3.092647
117.5524,89.0192,0.8110663,0.9699246,3.092647
117.6026,95.63092,0.7814927,0.9699246,3.092647
117.6513,97.66531,0.7561435,0.9699246,3.092647
117.7023,95.50377,0.7153032,0.9699246,3.092647
117.7519,83.42466,0.6815044,0.9699246,3.092647
117.8018,82.40748,0.6293975,0.9699246,3.086188
117.8531,80.75454,0.5786993,0.9699246,3.092647
117.9014,78.84731,0.5294093,0.9699246,3.092647
117.953,77.57583,0.4660368,0.9699246,3.092647
118.0019,77.70296,0.3716813,0.9699246,3.086188
118.0517,77.19438,0.2900012,0.9699246,3.086188
118.103,106.1843,0.2435276,0.9699246,3.086188
118.1524,117.6276,0.1998709,0.9697599,3.086188
118.2032,102.3698,0.1815633,0.9697599,3.086188
118.2514,91.81647,0.1576224,0.9699246,3.086188
118.3025,91.81647,0.1350897,0.9699246,3.086188
118.353,92.45221,0.1350897,0.9697599,3.086188
118.4017,97.9196,0.1294564,0.9697599,3.086188
118.4524,94.61374,0.112557,0.9699246,3.086188
118.5018,88.5106,0.09988269,0.9699246,3.086188
118.5515,82.15317,0.0900248,0.9699246,3.086188
118.6035,81.13599,0.06608389,0.9699246,3.086188
118.6519,81.13599,0.04777577,0.9699246,3.086188
118.7027,80.37309,0.04355118,0.9699246,3.086188
118.7522,77.83012,0.04214298,0.9699246,3.079729
118.8019,76.17719,0.04636757,0.9699246,3.079729
118.8529,78.08442,0.06326698,0.9697599,3.079729
118.9023,116.229,0.09565759,0.9699246,3.086188
118.9529,118.1362,0.1548055,0.9699246,3.079729
119.0013,95.24948,0.2209949,0.9697599,3.086188
119.0524,94.2323,0.3181667,0.9699246,3.079729
119.1029,91.43503,0.4251965,0.9699246,3.079729
119.1523,94.86804,0.5336344,0.9699246,3.079729
119.2029,98.1739,0.6195396,0.9699246,3.079729
119.2515,96.77527,0.6772793,0.9699246,3.079729
119.3023,87.74771,0.7392441,0.9697599,3.079729
119.3527,84.18755,0.7871254,0.9699246,3.07327
119.4015,82.28033,0.8279657,0.9699246,3.079729
119.4526,80.37309,0.8533154,0.9699246,3.07327
119.5014,79.86449,0.8716224,0.9700893,3.079729
119.5515,78.46587,0.8871142,0.9697599,3.079729
119.6034,77.06723,0.8997884,0.9697599,3.07327
119.6523,84.569,0.9082376,0.9699246,3.079729
119.7034,116.1019,0.9279545,0.9699246,3.07327
119.7518,109.9987,0.9462615,0.9699246,3.07327
119.8014,94.99519,0.9603446,0.9697599,3.079729
119.8535,87.11198,1.006818,0.9699246,3.07327
119.9019,89.0192,1.027942,0.9699246,3.07327
119.9535,97.28386,1.025126,0.9699246,3.07327
120.0018,97.28386,1.00541,0.9697599,3.07327
120.0516,85.07759,0.991327,0.9699246,3.07327
120.1028,83.04321,0.9814691,0.9697599,3.07327
120.1522,80.75454,0.9702024,0.9700893,3.07327
120.2028,80.11879,0.9561195,0.9697599,3.07327
120.2516,77.83012,0.9448539,0.9699246,3.07327
120.3025,77.32152,0.920913,0.9699246,3.07327
120.3526,76.30434,0.8941557,0.9699246,3.07327
120.4025,100.2083,0.8730311,0.9699246,3.07327
120.4526,116.8647,0.854723,0.9697599,3.06681
120.5026,106.0571,0.8350073,0.9697599,3.07327
120.5524,90.03638,0.7983921,0.9697599,3.07327
120.6026,86.85767,0.7688178,0.9697599,3.06681
120.6526,87.36626,0.7462851,0.9699246,3.07327
120.7033,98.04675,0.6829126,0.9699246,3.07327
120.7538,97.53816,0.615315,0.9697599,3.06681
120.8016,90.16354,0.5322262,0.9699246,3.06681
120.8534,80.24594,0.4604035,0.9699246,3.06681
120.9021,78.21156,0.3674567,0.9699246,3.06681
120.9532,77.06723,0.3139416,0.9697599,3.06681
121.0018,77.19438,0.2731018,0.9697599,3.06681
121.0515,76.43149,0.2224031,0.9699246,3.06681
121.1028,75.66859,0.17593,0.9699246,3.06681
121.1525,86.85767,0.1562137,0.9699246,3.06681
121.2034,123.2222,0.1421312,0.9697599,3.06681
121.252,114.4489,0.1421312,0.9697599,3.060351
121.3021,95.75809,0.1393143,0.9699246,3.06681
121.353,95.75809,0.1393143,0.9699246,3.06681
121.4023,95.75809,0.140723,0.9697599,3.06681
121.4534,99.57254,0.1421312,0.9699246,3.06681
121.5022,99.06393,0.1421312,0.9699246,3.06681
121.5522,87.87486,0.1379061,0.9699246,3.06681
121.6036,84.44184,0.1379061,0.9697599,3.060351
121.6518,82.28033,0.1393143,0.9699246,3.060351
121.703,82.53461,0.140723,0.9699246,3.060351
121.7515,80.75454,0.1435394,0.9699246,3.060351
121.8019,79.73734,0.147764,0.9697599,3.060351
121.853,77.95727,0.1604388,0.9697599,3.060351
121.9016,85.07759,0.1674803,0.9699246,3.060351
121.9534,122.8407,0.1956458,0.9697599,3.060351
122.0019,114.7032,0.2618352,0.9699246,3.053892
122.0519,95.75809,0.3238,0.9699246,3.060351
122.1033,93.978,0.4026637,0.9699246,3.060351
122.152,93.46941,0.4773028,0.9699246,3.060351
122.2034,100.7169,0.5688414,0.9697599,3.060351
122.2521,100.2083,0.6293975,0.9699246,3.060351
122.3017,94.2323,0.6815044,0.9699246,3.060351
122.3529,84.569,0.7392441,0.9697599,3.060351
122.4023,83.55181,0.7786757,0.9697599,3.07327
122.4529,83.29751,0.8138827,0.9697599,3.079729
122.5014,81.89888,0.84064,0.9699246,3.079729
122.5525,80.62739,0.8561317,0.9699246,3.079729
122.6028,78.08442,0.8673984,0.9699246,3.079729
122.6514,86.47623,0.8772563,0.9699246,3.079729
122.7032,119.0263,0.8927469,0.9697599,3.079729
122.7519,114.0675,0.9054213,0.9699246,3.07327
122.8014,99.44539,0.9138715,0.9699246,3.079729
122.8533,93.978,0.9223207,0.9697599,3.07327
122.9024,90.79928,0.9349959,0.9699246,3.079729
122.9526,99.31824,0.9406288,0.9699246,3.07327
123.0016,100.4626,0.9406288,0.9697599,3.079729
123.0523,90.29069,0.9349959,0.9699246,3.07327
123.103,87.23911,0.925137,0.9697599,3.079729
123.1517,84.82329,0.9138715,0.9699246,3.07327
123.2033,84.69615,0.8955634,0.9697599,3.07327
123.2514,83.93326,0.8772563,0.9699246,3.07327
123.3017,81.13599,0.8420488,0.9697599,3.07327
123.3525,80.24594,0.8040248,0.9699246,3.07327
123.4022,94.61374,0.7688178,0.9699246,3.07327
123.4533,118.8991,0.735019,0.9697599,3.07327
123.502,109.2358,0.7026284,0.9699246,3.07327
123.5515,94.86804,0.6631963,0.9699246,3.07327
123.6029,90.79928,0.6279893,0.9699246,3.07327
123.6515,91.94361,0.5970074,0.9699246,3.07327
123.7025,99.57254,0.5603917,0.9699246,3.07327
123.7523,99.19109,0.5125099,0.9699246,3.06681
123.8015,97.9196,0.4618117,0.9699246,3.06681
123.8533,86.09478,0.3998474,0.9699246,3.06681
123.902,85.33189,0.3435158,0.9699246,3.06681
123.9526,83.93326,0.2646521,0.9699246,3.06681
124.0021,82.53461,0.2195867,0.9699246,3.06681
124.0518,81.39028,0.1491727,0.9699246,3.06681
124.1037,79.86449,0.1041073,0.9697599,3.06681
124.1514,82.66177,0.05622547,0.9697599,3.06681
124.203,122.9679,0.02524358,0.9697599,3.06681
124.2523,118.3905,0.02242667,0.9699246,3.06681
124.3021,101.7341,0.01116057,0.9699246,3.06681
124.3532,100.7169,0.004119067,0.9699246,3.06681
124.402,99.57254,0.00271087,0.9697599,3.06681
124.4525,100.3354,0.01116057,0.9697599,3.06681
124.5025,101.7341,0.01397697,0.9699246,3.06681
124.5525,100.844,0.009752374,0.9697599,3.06681
124.6029,89.40065,0.01116057,0.9697599,3.06681
124.6514,88.63776,0.009752374,0.9700893,3.06681
124.7025,87.11198,0.001302673,0.9699246,3.06681
124.753,86.09478,-0.0001055238,0.9699246,3.060351
124.8022,84.0604,-0.001513721,0.9699246,3.06681
124.8529,83.80611,-0.001513721,0.9697599,3.060351
124.9017,81.39028,0.001302673,0.9699246,3.060351
124.9535,111.6517,0.005527264,0.9699246,3.060351
125.0022,123.2222,0.02805997,0.9697599,3.060351
125.0515,104.9128,0.07171668,0.9699246,3.060351
125.1032,100.3354,0.1224149,0.9699246,3.06681
125.1518,99.82683,0.1815633,0.9699246,3.060351
