t_sec,O11_muM,O12_muM,O21_muM,O23_muM,O32_muM,O33_muM,O34_muM,O42_muM,O44_muM,O45_muM,O53_muM,O54_muM,O56_muM,O64_muM,O65_muM,O66_muM,O75_muM,O77_muM,O86_muM,O87_muM,D11_muM,D12_muM,D21_muM,D23_muM,D32_muM,D33_muM,D34_muM,D42_muM,D44_muM,D45_muM,D53_muM,D54_muM,D56_muM,D64_muM,D65_muM,D66_muM,D75_muM,D77_muM,D86_muM,D87_muM
0.08560073,-3.32898,-10.4243,-1.832054,1.577607,7.896554,0.765435,0.8380672,-9.45883,-13.28873,-5.51575,0.2041955,0.8955706,-0.08076207,0.5122289,6.615873,0.441983,-0.626346,-1.041498,0.3247309,-0.01144984,1.407773,-1.187296,-1.028831,0.3203854,2.047115,0.4558241,0.5747895,3.013224,7.367918,2.793625,0.3047971,0.6982302,-0.004051833,-0.1170111,-2.617961,0.2648718,-1.220636,-0.5678611,0.2578354,0.2872509
0.2135999,-3.072507,-12.06709,-1.992162,1.423026,2.321308,0.6449261,0.9277542,4.267713,10.38124,-5.92381,0.05117074,0.800749,-0.249342,0.4042512,-1.396495,0.2963042,-1.832317,-1.150156,0.2686066,-0.1038755,1.246219,2.725118,-1.038187,0.3141797,-7.219954,0.4583391,0.5943435,-7.992197,-1.315841,2.941412,0.2967756,0.6800464,-0.01623141,0.2196099,1.476993,0.2475518,-1.073506,-0.5979605,0.2541758,0.2762564
0.3415991,-2.329714,-47.42102,-1.867628,1.568051,-8.50102,0.875075,0.934911,23.05745,-3.893359,1.049965,0.4735234,0.9387655,0.08299666,0.5523415,2.484943,0.7285117,-2.191128,-0.7687558,0.5465842,0.3115386,1.342597,18.32475,-1.036541,0.3290043,3.633579,0.4668761,0.7922595,-14.92579,7.891504,-2.718206,0.3363738,0.7144233,0.01928654,0.2634493,-1.482774,0.285117,0.2045432,-0.5222842,0.2735052,0.3079431
0.4695983,-2.424252,-25.32116,-1.634974,1.868611,-22.87392,1.036314,1.119999,7.278122,11.0957,0.6875281,0.5418438,1.064692,0.1862166,0.5219836,-5.307375,0.7632713,-1.876577,-0.7204208,0.5477719,0.3207716,1.605763,3.777656,-1.000031,0.3672496,13.65683,0.4855219,0.3733532,-2.353954,1.822662,-0.3761605,0.340557,0.6495737,0.01767447,0.2628871,6.450963,0.2985279,-0.5330367,-0.5376526,0.2716916,0.309425
0.5975974,-1.786315,-38.19684,-1.618801,1.836347,-2.342362,0.9885393,1.053264,8.549829,6.313983,-1.390895,0.5266289,0.9957517,0.1658221,0.7307317,2.822086,0.7849597,-1.928191,-0.7144322,0.560616,0.3341511,0.2974551,17.90904,-1.007561,0.357638,7.74619,0.5034171,0.4871099,-0.273877,-5.498224,-0.8599014,0.3374035,0.709281,0.02026857,0.2384601,-3.786738,0.290276,0.5995861,-0.5403262,0.2687201,0.3129399
0.7255966,-4.387511,-2.290906,-1.644729,1.797369,-0.01898343,0.9792286,1.027705,-9.57727,1.093351,2.159937,0.4195224,0.9807774,0.09191222,0.02306898,-1.154146,0.6696984,-2.851887,-0.8086498,0.4714495,0.2147279,1.575773,5.410632,-1.002667,0.3519135,-8.181341,0.4797223,0.6387663,6.984064,3.869859,-1.029487,0.3225459,0.6637967,0.009684001,0.4986326,4.281591,0.2965451,0.2275839,-0.550644,0.2643882,0.3067491
0.8535958,-0.9473482,14.39286,-1.777866,1.624511,10.98505,0.821233,0.876371,-5.664903,-7.503258,1.544305,0.2558312,0.9394758,-0.05713128,0.402238,0.7380983,0.5127764,-2.064368,-0.9300792,0.3732102,0.06755423,-0.3684093,-10.87674,-1.019447,0.3341253,-3.49964,0.4715692,0.5822557,-3.702915,5.622094,-2.027655,0.3110947,0.6736243,0.0006843174,0.2170574,3.905808,0.2829357,0.1708988,-0.5751218,0.2585397,0.3000772
0.9815949,-2.238163,11.17144,-1.928164,1.47309,1.154018,0.6821172,0.1591922,18.48338,8.353164,-0.8687982,0.10038,0.8249882,-0.2071083,0.2397711,5.65143,0.3583049,-1.902263,-1.114047,0.2649788,-0.07498591,-0.4306894,-3.608033,-1.032256,0.3254046,-3.636633,0.4598638,0.9707489,-19.35562,-3.471437,-0.6600186,0.2999279,0.6664968,-0.01418386,0.114007,-1.75157,0.2643809,-0.5424993,-0.5660472,0.2572518,0.2915418
1.109594,-2.61025,-19.27948,-2.065127,1.359315,-0.4883565,0.5690989,0.8007759,-5.977186,-3.006222,-4.271715,0.1518606,0.7585104,-0.190213,0.2648684,-13.11421,0.5584723,-2.463875,-0.8368839,0.4824733,0.2485441,0.2266943,3.652364,-1.050051,0.3095197,-2.308721,0.4761396,0.6076509,4.15021,-9.143361,0.08966143,0.3131128,0.7003574,0.001868829,0.4637277,9.217495,0.2695577,-0.566925,-0.54023,0.2679814,0.3008558
1.237593,-3.14482,0.2111674,-1.662226,1.855609,5.732625,1.003385,0.6849601,-12.98386,-5.654155,3.489546,0.5227897,1.004507,0.142762,0.2430816,15.55755,0.770597,-1.329751,-0.7088022,0.5605643,0.346453,0.4112105,1.758946,-1.015367,0.3540746,5.597999,0.493497,0.7609156,13.86363,1.083146,-2.228191,0.3336035,0.7027229,0.01684513,0.3631247,-11.4736,0.2867841,0.1779173,-0.5140057,0.2716894,0.3133297
1.365592,-2.47275,10.17666,-1.638953,1.851373,1.355392,0.9300315,0.6439787,-3.833489,-8.760863,0.5528389,0.5067586,1.046897,0.1438455,0.4305533,-7.34577,0.7381552,-3.09607,-0.7338139,0.5438376,0.3346262,0.7802829,-4.739122,-0.9984815,0.3511305,-8.92659,0.5054308,0.7390036,5.573833,6.116183,-2.587886,0.329217,0.6588442,0.007848591,0.3117786,0.1478003,0.2987548,-0.1696608,-0.5060645,0.2755244,0.3112995
1.493592,-0.3732851,6.573062,-1.63156,1.843252,0.6497456,0.9887075,0.73208,6.327693,-1.448829,3.464485,0.4693607,1.015758,0.1121727,0.681437,-3.6535,0.6854446,-1.842345,-0.7189326,0.4961688,0.2683282,-1.454553,3.182747,-1.004495,0.3503228,-5.19595,0.4805643,0.8385789,-1.239927,-0.6568159,-4.181188,0.3255552,0.6842659,0.01830239,0.1038065,2.900368,0.2926408,-0.7766761,-0.5481147,0.2689402,0.3102349
1.621591,-2.257456,7.327152,-1.735085,1.703634,9.593903,0.8492729,1.181347,-6.590925,3.849939,-0.6089857,0.3130183,0.9271303,-0.003159866,0.3631456,-6.660671,0.5421165,-1.625418,-0.9125198,0.3983316,0.1055275,0.6334041,-8.656513,-1.012347,0.3405004,-4.186999,0.4752818,0.522716,-3.208642,5.093344,-1.180792,0.315546,0.6805638,0.004288269,0.1143278,-0.0705086,0.2766487,0.1208755,-0.5307227,0.2626953,0.3063278
1.74959,-1.759348,-1.114788,-1.880696,1.545532,5.469029,0.678439,1.031621,5.47224,10.999,0.6395317,0.152906,0.823195,-0.1522508,0.5752556,-10.92466,0.3970346,-2.752934,-1.07356,0.3066791,-0.02620823,0.9389628,-10.83667,-1.028528,0.3259851,5.168045,0.4771138,0.4369003,0.9777352,-2.194275,-0.9940936,0.3085773,0.7012643,-0.004188738,0.1112903,7.071922,0.2646186,0.5789245,-0.5424271,0.2567327,0.2932897
1.877589,-2.049106,-3.010513,-2.020113,1.402528,9.584552,0.6097713,0.5096211,-13.0357,15.78048,-3.684204,0.01971975,0.6556841,-0.3113311,-0.0316276,-3.395183,0.2838497,-2.017836,-1.098765,0.3072679,0.006050491,0.1680911,8.495108,-1.037691,0.3201322,0.5109388,0.4388154,0.8804752,6.355514,-6.666339,0.5841485,0.2962505,0.7043335,-0.009652643,0.1727883,-1.969287,0.2573251,-0.9781972,-0.558213,0.2639183,0.2848953
2.005588,-1.523312,-0.4204015,-1.800404,1.68428,-26.54389,0.8853484,1.106173,-2.794397,10.50605,-4.382594,0.4621262,0.9843513,0.07343265,0.7124583,-4.216462,0.6848696,-2.207889,-0.7361752,0.511898,0.2962568,-0.4875139,7.223813,-1.016068,0.344565,17.35044,0.4802428,0.5091009,5.15976,-10.80393,2.111421,0.3367452,0.66589,0.01527999,-0.1094996,0.8853148,0.2805344,-0.1562545,-0.5254593,0.2751307,0.3088526
2.133588,-2.405347,-2.771722,-1.687061,1.800015,2.763437,0.9026224,0.9214858,11.41276,-19.83248,-2.268914,0.4406221,0.9651245,0.07172038,0.5790951,-1.46569,0.6945345,-2.151696,-0.791954,0.5011066,0.279789,0.8948058,-2.027141,-1.002476,0.3582529,-3.869762,0.5059712,0.5535234,-7.14219,10.20636,0.2528514,0.3307454,0.6971098,0.01495581,0.4851784,-1.152496,0.2781586,0.7799464,-0.5092504,0.2744816,0.3126085
2.261587,-2.381001,5.906712,-1.677674,1.776991,4.260746,0.9092321,0.807313,11.92004,-4.886859,-0.2196729,0.4512683,0.9789505,0.08790158,0.09422224,5.50298,0.6744875,-3.177487,-0.7539052,0.4966658,0.2760569,-0.2519651,1.125883,-1.00521,0.3538022,-4.851868,0.4987999,0.794422,-8.920406,8.166859,-1.067061,0.3300463,0.6694127,0.01832357,0.7974554,-3.806206,0.2955609,0.4931076,-0.535099,0.2723083,0.3201932
2.389586,-2.17789,-0.5433524,-1.713531,1.691294,3.496337,0.8385412,1.016807,2.556952,11.18532,-1.243918,0.3183639,0.9619473,-0.005339162,-0.114971,-1.556389,0.5934974,-2.761798,-0.8667089,0.4069971,0.1660737,0.1943941,-5.497298,-1.004123,0.3530071,1.513716,0.4825464,0.7216559,3.302634,-9.378315,-1.100506,0.3259698,0.6421821,0.00993323,0.7012584,3.691173,0.2730416,0.7345318,-0.542737,0.2695994,0.3103919
2.517585,-2.790007,14.59494,-1.820427,1.535068,-7.865856,0.7134514,0.535271,-16.58509,6.234831,-1.494749,0.1854172,0.8083371,-0.148842,0.3129349,-5.367585,0.4281311,-2.7917,-0.9783978,0.3134904,0.004220284,1.009185,-8.360106,-1.030313,0.3415006,5.078022,0.4766005,0.7786531,5.273216,-7.637561,-0.7433425,0.3112419,0.6795346,0.002300762,0.2836584,-2.992109,0.2686794,0.5363898,-0.5775794,0.2661422,0.3137098
2.645584,-2.765543,-3.923132,-1.969386,1.407026,14.9875,0.6055856,0.7259591,11.41245,-2.376914,2.366812,0.04462202,0.7536585,-0.2786022,-0.1034177,-0.5323702,0.3065107,-1.276833,-1.148903,0.2383951,-0.1008481,0.3739689,9.30546,-1.030194,0.3275909,-5.362706,0.4694808,0.5369751,-4.134888,-3.192822,-2.77334,0.3023086,0.6700597,-0.01120289,0.5434888,2.73125,0.2563445,-0.6437115,-0.5645274,0.2626029,0.297207
2.773583,-2.214474,-12.82031,-1.952766,1.436654,8.86876,0.6977559,0.3284819,-18.2034,9.762257,-0.1740447,0.369631,0.9398177,-0.02087706,0.3861513,-7.448002,0.6588205,-0.7608482,-0.7687581,0.5053201,0.2701319,0.2382219,-0.3252453,-1.03708,0.3319117,-6.493324,0.4867151,0.8398849,3.592615,-4.016034,-0.5521329,0.3338825,0.6357207,0.0146279,0.1967635,5.437051,0.2760002,-1.273098,-0.5253438,0.2745678,0.3261324
2.901582,-2.538495,6.687985,-1.67954,1.78077,11.61675,0.9156872,0.8691764,-14.4584,13.18122,-5.141967,0.4695339,0.898311,0.08053368,0.7982392,8.36669,0.7211737,-2.01708,-0.7427117,0.4932558,0.2852504,0.4691712,-11.46026,-0.9928276,0.3678836,-3.642182,0.499778,0.917989,10.21224,-3.798733,1.382177,0.3440434,0.7033085,0.03359467,-0.02559479,-7.015063,0.2793877,-0.1269053,-0.5244637,0.2799751,0.3254931
3.029582,-3.009707,11.12329,-1.68113,1.745331,-7.584227,0.9272805,0.7441645,6.965908,0.1807443,-1.069882,0.4728031,0.946977,0.09548751,0.5404345,-1.168701,0.7160289,-1.828166,-0.7300947,0.5063339,0.2915986,0.9631873,-14.78926,-0.9858751,0.3653432,4.500204,0.4929972,1.001723,-4.020665,4.790612,-0.1077405,0.3350083,0.6825726,0.02466351,0.1438933,-3.885205,0.294663,0.02311759,-0.5230787,0.2795671,0.3284585
3.157581,-3.95802,-21.35409,-1.666084,1.720817,1.299475,0.8787665,0.8409738,7.102516,-13.82025,0.4400981,0.3836149,0.9819741,0.03543153,-0.1566742,6.966045,0.6295858,-1.122753,-0.8229806,0.428906,0.1964723,2.090831,14.91803,-0.9970002,0.3634161,-4.813874,0.5031755,0.6817443,-8.551355,9.53555,-0.8136458,0.3283034,0.6710413,0.02132725,0.6320061,-1.277076,0.2917346,-1.247098,-0.5403893,0.279183,0.3244511
3.28558,-1.835995,-17.17396,-1.805796,1.576862,15.71343,0.7303599,0.7801413,14.02045,2.398318,2.154964,0.2193332,0.894496,-0.1020459,-0.07216898,0.9247298,0.483643,-3.407945,-0.9660261,0.336201,0.05473118,0.2152771,0.9309474,-0.9905522,0.3491217,-5.81633,0.5009529,0.5697336,-2.895681,-0.6579923,-1.431123,0.3249085,0.6447842,0.009696459,0.6094167,-4.87148,0.2795904,2.195532,-0.5477728,0.2708431,0.3150658
3.413579,-2.155761,9.25454,-1.922409,1.435707,5.699125,0.6243069,0.7751363,4.457907,-7.554865,-0.8472372,0.1034842,0.7750558,-0.242587,0.5362982,-8.384868,0.3537963,-3.375062,-1.094798,0.2498558,-0.07804383,0.6956221,-9.319423,-1.017431,0.3386306,-1.404517,0.4917619,0.5930074,1.058077,-7.076136,-1.643555,0.3097245,0.6765392,0.006364712,0.03319462,4.479056,0.2721963,-0.4785038,-0.5663056,0.264795,0.307377
3.541578,-1.708376,10.74395,-2.067439,1.305313,4.641012,0.5470996,0.6734096,8.403545,9.233438,-6.484838,0.03020605,0.7204536,-0.305137,0.3527342,-0.7999535,0.3761133,-1.531562,-0.9769704,0.3990932,0.1500173,-0.8621398,-8.897852,-1.026214,0.3218071,-11.87107,0.4758307,0.6488487,3.433425,0.7110605,2.059282,0.311494,0.6852202,0.004398807,0.05962417,-5.979088,0.2824893,-2.275017,-0.5216662,0.2757851,0.3176042
3.669578,-2.117058,1.962531,-1.69404,1.763317,16.27335,0.9397419,0.758972,-9.387096,-18.60806,1.821168,0.5070073,0.9866278,0.1135007,0.1935542,-7.506603,0.7605681,-2.659738,-0.7276786,0.5391644,0.3442781,0.1453467,-0.7995898,-0.9997053,0.3743852,-14.67125,0.5075969,0.6076134,5.717429,10.62103,-2.130161,0.3493906,0.6787303,0.03015633,0.5870927,1.836505,0.2918967,0.3112263,-0.4996333,0.2847843,0.3330206
3.797577,-3.645067,-8.661348,-1.634425,1.829121,13.89695,0.9638145,1.132676,16.60071,-8.33553,-3.935734,0.5062171,0.9667837,0.1284591,0.581303,-3.208318,0.7554423,-3.624072,-0.7000694,0.5437073,0.3413765,1.623328,5.861308,-0.9731048,0.3801062,-8.201579,0.5232664,0.5624641,-8.812957,1.539347,0.3343655,0.3497626,0.7160165,0.03777544,0.215306,-4.149715,0.3042224,1.048554,-0.5124124,0.2854773,0.3343287
3.925576,-3.434492,14.17982,-1.61249,1.819717,5.903938,1.014595,0.5599152,-0.9584897,-10.38408,-2.424915,0.5122029,0.9552413,0.1404682,0.443352,-5.917597,0.7503031,0.9720463,-0.7378591,0.5130419,0.305721,1.214971,-2.446424,-0.9765753,0.3756007,2.258298,0.495612,0.8333547,-1.276344,10.3952,-0.06125896,0.3485402,0.7562096,0.03785771,0.2998798,4.548688,0.3090954,-1.640766,-0.5110382,0.2809841,0.3342037
4.053575,-1.940463,-19.09425,-1.70323,1.696629,-19.18528,0.9232074,0.9250563,7.213471,-5.658095,-5.874539,0.3791428,0.9522282,0.04260034,-0.03567025,8.854395,0.6203195,-1.131316,-0.8414333,0.4107502,0.1702086,0.06188276,12.21578,-0.9797825,0.3662269,6.674385,0.4856983,0.8095947,-3.330525,0.5123064,1.69558,0.3328367,0.6787074,0.02140987,0.640345,-6.481642,0.2928981,-0.3846098,-0.5466524,0.2801213,0.3265888
4.181574,-0.0862012,-2.22695,-1.840586,1.541636,-2.043582,0.7602022,0.3950411,-6.746849,13.1778,-3.701621,0.2161024,0.8291914,-0.1217459,0.497486,0.7144535,0.508661,-2.353236,-0.9744974,0.322879,0.03050394,-0.8716319,8.650127,-0.9888073,0.3524907,6.068977,0.4914429,0.8628837,3.445053,-17.3655,-0.5948626,0.3228363,0.7136349,0.0245447,0.4405525,-1.865783,0.2676884,0.4460301,-0.5557287,0.2725992,0.3251309
4.309574,-2.273456,9.121456,-1.959601,1.411734,9.367729,0.6601546,0.7450547,-5.925933,-0.0612106,0.7065244,0.08479641,0.7413128,-0.2492401,0.1313643,3.917126,0.3443041,-1.552101,-1.138437,0.2181517,-0.1197515,0.4530485,-7.796553,-1.012575,0.3428889,-12.46754,0.4784857,0.7350639,-6.657205,6.422499,-2.162878,0.3096844,0.6760215,0.01636119,0.3368519,-0.09641895,0.2546181,-0.9446828,-0.5654647,0.2691686,0.3160746
4.437572,-2.681831,4.059433,-2.105953,1.275026,14.39916,0.5744533,0.5278923,6.884564,-9.005055,-2.78266,0.1659052,0.7887629,-0.1781849,0.544578,-3.825835,0.5421255,-1.05932,-0.849877,0.449987,0.2272379,0.8770469,4.658537,-1.028223,0.3342147,-8.106004,0.4546159,0.6319432,1.912346,6.974864,-0.4440717,0.3291447,0.6945325,0.02003093,0.2464434,2.787035,0.2774971,-0.728812,-0.5282501,0.2838714,0.3234176
4.565572,-0.7096476,-8.408139,-1.709913,1.774824,12.01092,0.9941425,0.7760215,4.542877,8.831561,-0.9344068,0.5029114,0.9660637,0.1213112,0.1049628,5.701552,0.7604371,-2.976129,-0.7286853,0.5255901,0.3136095,0.409223,-0.02988492,-0.9725772,0.3849022,-9.940116,0.4892368,0.7756098,2.757272,4.645857,-1.317091,0.351696,0.6812488,0.04494907,0.5115338,-4.199644,0.3027035,1.001385,-0.5113855,0.2880938,0.3388552
4.693571,-2.228085,15.5463,-1.6611,1.768643,1.349297,0.9660906,0.2425196,8.347253,-5.060762,-3.30371,0.4898528,0.9153994,0.136869,0.6130625,5.872241,0.7622266,-1.447196,-0.7227734,0.5225201,0.3255008,-0.2051231,-11.509,-0.9815092,0.3831054,1.917625,0.5000752,1.102775,-3.152406,7.027221,1.325762,0.3486498,0.7534136,0.03442271,0.118346,-8.571522,0.3040862,-1.072697,-0.5150803,0.2873109,0.3315043
4.82157,-1.985061,2.664817,-1.656422,1.758178,-3.019986,0.9644787,1.035643,7.858957,15.0458,-1.260326,0.4630367,0.9785396,0.1020308,0.5452208,-3.279847,0.7211396,-2.894003,-0.7898846,0.4752949,0.2491283,0.6706737,-1.73986,-0.9787551,0.3790379,-12.45158,0.4974962,0.6751795,3.04225,-8.056726,-0.6847406,0.3415442,0.6693658,0.04422241,0.383316,-2.444506,0.2996059,0.2010791,-0.5147213,0.2820773,0.3387557
4.949569,-1.440364,-23.58518,-1.793834,1.612399,-8.127051,0.8185008,0.9360992,11.48723,23.1982,5.453563,0.3042935,0.9295378,-0.01668491,0.3318677,1.758809,0.5674991,-1.513977,-0.9355291,0.3583157,0.1041069,0.4632672,16.06645,-0.9696999,0.3725446,-2.055714,0.524297,0.5186462,-11.29948,-19.67074,-3.837604,0.3301327,0.6933576,0.03010426,0.1780801,-4.437735,0.2820278,-0.6875448,-0.5317341,0.2805845,0.3250869
5.077569,-1.530819,10.57123,-1.918151,1.457784,5.604918,0.7063448,0.9065897,4.134315,-2.17188,-0.204972,0.1483379,0.7905302,-0.1534221,0.5275586,6.068091,0.4176872,-1.458465,-1.085255,0.2726859,-0.05832307,-0.5915264,-11.97544,-0.9986501,0.3571796,-3.983199,0.4769971,0.6478453,3.206813,-1.517656,-1.482953,0.3162945,0.725396,0.01902073,0.09234954,-2.243814,0.2630806,-0.9824119,-0.5448004,0.2703793,0.3208253
5.205568,-1.955521,9.457383,-2.069557,1.343272,-10.76335,0.5605123,0.7595409,17.01731,-0.4453193,1.596469,-0.003334762,0.6544627,-0.3073067,0.1747656,9.652948,0.2668895,-2.853406,-1.224463,0.157674,-0.2143696,0.55552,-4.479787,-1.013943,0.3387997,7.270104,0.4819109,0.5672954,-11.14482,-0.1137588,-2.271084,0.3124293,0.7135664,0.01036257,0.04676512,-6.030648,0.2538261,0.4406142,-0.5505469,0.2674434,0.3060659
5.333567,-3.276788,-4.296135,-2.208517,1.247692,-17.47034,0.4964607,0.925539,12.77079,17.00657,-0.8126574,0.1416159,0.7115256,-0.20213,0.2819954,-7.837676,0.4846919,-1.311408,-0.9395488,0.4040485,0.1475564,1.644391,-15.68696,-1.037335,0.3239787,14.05744,0.468996,0.4130662,-4.756862,-2.648069,-1.304953,0.3252177,0.678651,0.02051476,0.4784931,4.302034,0.2748653,-0.3659011,-0.4966862,0.2788321,0.322629
5.461566,-2.529393,3.797962,-1.821178,1.704026,-2.662601,0.8943823,0.6454989,10.32871,-7.495734,2.625702,0.4021171,0.9532299,0.04173807,0.6600672,6.45236,0.6667211,-0.9620843,-0.8115432,0.4491717,0.2177504,0.6015131,-4.421558,-0.98002,0.3711016,5.902331,0.4978765,0.7710814,-7.651324,10.72388,-1.676339,0.3473942,0.6634746,0.04323024,0.04828299,-1.543607,0.2802066,-0.8598996,-0.5134718,0.2827849,0.331741
5.589565,-1.07124,-4.682467,-1.810856,1.663575,-18.22402,0.8769591,0.5516434,5.162987,14.35962,1.238663,0.3825892,0.9063381,0.03285397,0.5759361,7.756145,0.651638,-2.116834,-0.8281326,0.452514,0.2160446,-1.081986,0.09304866,-0.9760316,0.376775,10.84589,0.4828526,0.8336712,-8.971216,-7.257076,-1.627723,0.3434663,0.6798108,0.0378582,0.07230812,-9.20926,0.2909562,-0.1094829,-0.499322,0.2836699,0.3350762
5.717564,-2.078238,-1.341483,-1.78106,1.655957,5.861764,0.8781093,0.7125494,-1.143509,0.7069476,-5.094702,0.3369792,0.9679047,-0.004980376,0.469829,0.8775271,0.6037674,-2.865889,-0.8993628,0.3996269,0.1445669,0.1414167,0.8990401,-0.9851825,0.3756089,4.649387,0.4893402,0.7928478,2.098204,-0.2796168,1.833512,0.34129,0.6553549,0.04308873,0.417649,0.4618041,0.2843976,1.27675,-0.5122107,0.2786591,0.3312851
5.845563,-1.68868,-2.923839,-1.882301,1.519098,-17.53345,0.7291697,0.2413893,-13.98164,-2.561866,1.489218,0.2005491,0.8682718,-0.1248298,0.04604493,-2.518722,0.4580197,-1.736742,-1.016349,0.2954233,0.00863899,-0.1284142,7.577541,-0.9911686,0.3659479,12.0307,0.5089054,0.8970231,1.944155,1.559004,-2.844272,0.3266781,0.6716545,0.03036711,0.5577438,4.84978,0.2767963,0.05064784,-0.5369083,0.2760908,0.321523
5.973563,-2.218946,-18.66553,-2.038406,1.37582,5.87951,0.6124621,0.6462891,-15.02406,11.31619,1.199822,0.04706473,0.7147325,-0.2598048,0.1104598,-8.562677,0.3225175,-1.860034,-1.147767,0.206791,-0.124925,0.2389983,13.90127,-0.9967951,0.3541748,-5.047805,0.4860356,0.7584952,1.290767,-3.151132,-3.025659,0.3164634,0.6946152,0.01763125,0.2640586,3.11807,0.2753869,-1.047872,-0.5498921,0.273588,0.318896
6.101562,-2.061024,-14.6641,-2.160394,1.24252,17.48648,0.4722618,0.7287531,-5.58047,18.34432,-2.714251,-0.09441023,0.6353045,-0.4187553,0.05583755,-3.490592,0.1778406,-2.910361,-1.247324,0.1655256,-0.1816302,0.2981178,6.085153,-1.010992,0.3411925,-15.94986,0.4902983,0.5217648,7.098653,-10.43379,0.9514933,0.3046359,0.7040907,0.008093677,0.2849984,0.9156694,0.2586701,-1.303052,-0.5542554,0.2708001,0.3069349
6.229561,-2.593915,7.568934,-2.019385,1.405827,-3.748146,0.6894467,0.64755,-21.13994,15.49182,1.128909,0.2680519,0.7325226,-0.1198698,0.4035988,0.5224823,0.5537792,-3.237729,-0.908552,0.3763929,0.1349825,0.07924927,-14.33762,-1.00549,0.3604186,-3.618401,0.5020931,0.8476269,3.842141,-6.071445,-1.542612,0.3373565,0.7351621,0.03412429,0.1464508,1.211876,0.2816663,0.2893036,-0.5061056,0.2854557,0.3341242
6.35756,-0.678062,15.32502,-1.867192,1.555239,-20.59031,0.7553298,0.9788673,2.278125,-4.487442,-5.445579,0.2198153,0.8337532,-0.1091999,0.5713641,-8.457466,0.5296581,-3.886345,-0.9581988,0.3409662,0.08654452,-0.3575846,-8.23851,-0.9868662,0.3753016,7.405757,0.515764,0.531022,-0.7905633,2.684271,1.251928,0.3385748,0.6817036,0.02989229,0.2529834,7.376289,0.2783431,0.5938344,-0.5231603,0.2839368,0.3306033
6.485559,-3.095182,10.78206,-1.908866,1.523132,7.277166,0.731593,0.2776,15.38732,0.3474693,-0.8311806,0.2292453,0.8177525,-0.1294532,0.2410307,-9.176784,0.5217356,-2.507013,-0.9502083,0.3288999,0.0724088,1.230951,-9.04427,-0.9903857,0.3665575,-4.640666,0.5075972,0.9970252,-9.350559,4.159479,-0.7724871,0.3292381,0.6899683,0.0339816,0.3210593,9.94683,0.2822249,0.7858975,-0.5155597,0.2849543,0.3351186
6.613558,-2.157669,8.367764,-1.959677,1.453525,1.28088,0.6455725,0.9252627,-17.85209,-8.13369,-4.979016,0.09541067,0.8263271,-0.2235814,0.2986475,-3.348157,0.3981273,-1.840989,-1.04624,0.2399027,-0.05886488,-0.1054312,2.980627,-0.9927591,0.3629528,-0.08865091,0.5062236,0.5575786,12.18817,-4.382962,1.399984,0.3293077,0.6760631,0.02501825,0.3752779,3.107763,0.277311,0.02646316,-0.5490783,0.2783269,0.3295547
6.741558,-2.231594,2.282167,-2.098778,1.302536,10.39174,0.5242733,0.3683427,8.184384,-3.583649,-1.615103,-0.05842222,0.6091297,-0.3853846,0.3926198,-3.790868,0.2093778,-1.334012,-1.214152,0.1372213,-0.2179666,0.2293185,4.335185,-0.9994062,0.3479764,-1.00375,0.4824715,0.8972645,-8.049478,0.1572532,-1.487783,0.3142954,0.7478308,0.01572524,0.07699391,1.100296,0.2775813,-0.8691003,-0.5620669,0.2711196,0.3197747
6.869557,-2.244318,-8.804553,-2.268739,1.154632,-5.216163,0.4162925,0.8968362,-5.090691,-9.991172,-0.5130904,-0.2083624,0.5098802,-0.5391041,0.001869843,-5.71505,0.07455201,-2.719088,-1.365419,0.0335432,-0.3793323,0.2151015,3.032211,-1.017336,0.3401452,-6.536583,0.4718932,0.3833926,5.128006,-2.140373,-1.5961,0.3047765,0.7122557,0.002644769,0.1371016,6.885407,0.2576133,0.349647,-0.5722312,0.2704801,0.3169639
6.997556,-2.816827,-24.99654,-2.407922,1.066836,8.190809,0.4047127,0.1328011,13.77748,11.25123,-5.236116,-0.04322842,0.5790807,-0.4288035,0.1021773,-3.460042,0.353752,-3.045023,-1.034874,0.2982865,0.02102843,0.9473496,15.7792,-1.015283,0.3287477,-6.103526,0.4440878,0.8686976,-10.88102,1.334906,-0.3516354,0.3190395,0.7215655,0.02481726,0.5913587,2.347901,0.2712877,0.8683525,-0.5163444,0.2827026,0.3317697
7.125555,-3.42919,-5.306061,-1.958384,1.542369,0.9987366,0.7475618,0.2565148,-1.541386,-17.61329,-8.725992,0.2355809,0.8811736,-0.148622,0.3628202,1.283892,0.5578897,-1.551901,-0.899123,0.3514071,0.1060712,2.081674,-4.610383,-0.9694312,0.3751273,4.29129,0.510192,0.7325267,7.283991,6.738152,2.592331,0.3423395,0.6307651,0.03386737,0.3998459,-0.5841226,0.2829379,-1.211487,-0.5141499,0.286925,0.3386757
7.253554,-0.952361,-18.72377,-1.920774,1.511954,5.845908,0.7383264,1.027684,-10.83123,16.24813,1.650673,0.2093361,0.8000282,-0.1445673,0.2243968,-9.756701,0.5323665,-3.499596,-0.9132323,0.3468189,0.1150504,-1.049004,12.94318,-0.9746984,0.3789504,-3.922325,0.5019709,0.546755,12.64314,-9.116749,-2.916932,0.3430903,0.6897197,0.02994524,0.3223907,2.567878,0.2926945,0.347019,-0.5015818,0.291302,0.3380092
7.381554,-2.221073,-22.66391,-1.916065,1.521776,10.20676,0.7362409,0.5884842,9.05985,1.991751,-0.7173333,0.1815342,0.7459161,-0.1675759,-0.3098968,-6.249165,0.5231872,-3.353335,-0.9676325,0.2966734,0.04191834,0.1753475,14.29756,-0.9728819,0.3811657,-3.348882,0.5027055,0.7374037,-9.47979,-1.7942,-0.6685651,0.3411193,0.712297,0.02917773,0.7174836,-0.05786598,0.2759136,0.3149487,-0.5238072,0.2867149,0.3363705
7.509553,-2.026654,-15.15253,-2.013797,1.397929,17.96358,0.6320402,0.7083123,6.566371,16.7763,-5.260445,0.03889327,0.7758419,-0.3052212,0.1374438,5.765718,0.3459466,-3.111935,-1.102003,0.1991764,-0.1078185,0.0495982,0.5371006,-0.9784241,0.364279,-8.254574,0.4843396,0.5281132,-6.079629,-6.862162,1.041316,0.3241441,0.6553935,0.01984148,0.414185,-8.017226,0.2758794,-0.6171063,-0.5309775,0.2791327,0.3290876
7.637552,-2.731752,14.2333,-2.166728,1.24953,1.809319,0.5152528,1.046731,-26.08194,13.67674,2.705384,-0.1060367,0.606809,-0.4532501,0.2815859,-1.197073,0.1870246,-1.439919,-1.199126,0.1029353,-0.2587134,0.2564386,-4.740543,-0.9995897,0.3482239,5.965446,0.4662506,0.06435594,14.69449,0.02134391,-2.730944,0.3121293,0.6982464,0.009567061,-0.08806255,-4.205905,0.27147,-1.003284,-0.5732675,0.2771709,0.3245438
7.765551,-3.286879,4.99403,-2.325361,1.106414,-22.18459,0.3505566,0.8296175,16.66718,0.8229558,-1.467004,-0.2216177,0.5405623,-0.5663474,0.2207687,-11.43454,0.1373627,-3.525147,-1.155925,0.1886568,-0.1041683,1.260695,-8.744579,-1.002821,0.3445301,10.60373,0.4902442,0.4331303,-11.48436,0.007358845,-1.365025,0.3129615,0.6853479,0.004540241,-0.01326412,9.044242,0.2693334,0.09230966,-0.547476,0.283566,0.3166638
7.89355,-2.258882,-4.372802,-2.01679,1.493062,-5.527107,0.7548028,0.5573034,-2.982698,-3.947368,-5.033982,0.263924,0.7055034,-0.1343853,-0.2279898,1.461084,0.5699575,-1.279112,-0.8995434,0.3690051,0.1307079,0.1614014,3.882016,-0.9711999,0.3901311,2.507897,0.5039251,0.694161,1.258322,5.755677,-0.118525,0.3499418,0.734811,0.03294127,0.7656289,0.5165477,0.2901546,0.0754769,-0.4789401,0.2921364,0.3408209
8.021549,-3.000195,-24.83972,-1.882526,1.604764,9.657178,0.7405709,0.6156285,-3.956427,4.457287,0.9305217,0.2599528,0.8243268,-0.1297641,-0.2134932,-15.03179,0.5661044,-1.94792,-0.8825594,0.3726401,0.1329508,1.412097,7.847223,-0.9703428,0.3845244,-6.582642,0.5334777,0.8912423,-0.7692501,-3.631038,-1.531285,0.3506592,0.6869031,0.04104228,0.6332631,6.284199,0.2969847,0.6026296,-0.4994748,0.2931243,0.3429605
8.149549,-2.808164,-2.433743,-1.883681,1.5802,11.09179,0.7984297,0.3633557,5.877735,23.26747,-1.727753,0.275842,0.8713828,-0.1058386,0.3966075,1.025285,0.5935801,-1.112518,-0.8897197,0.3625458,0.1045543,1.015765,-2.708881,-0.973699,0.3877835,-0.7186117,0.5046086,1.061101,5.975426,-19.7123,-0.8943187,0.3490727,0.7088521,0.04379294,0.3392759,3.508878,0.2933658,-1.164472,-0.4913029,0.2899164,0.3488747
8.277548,-3.15208,4.080801,-1.932669,1.485193,10.65213,0.6859135,0.7134691,-1.964589,4.239738,-6.810526,0.158662,0.8323119,-0.2163095,0.1986274,4.68785,0.4568448,-3.598114,-0.9872714,0.2662419,-0.02590501,1.145254,-3.667375,-0.9764179,0.378858,-5.076589,0.5170997,0.8408535,4.747802,-10.3076,1.58847,0.3346868,0.6380525,0.04332894,0.5058749,-7.39388,0.2844414,1.196462,-0.521649,0.2868179,0.3411816
8.405547,-2.55316,-1.187547,-2.078881,1.325833,-10.07516,0.5270928,0.3284341,0.6139582,7.056299,3.440296,0.005485889,0.7162492,-0.3372132,0.234107,0.177694,0.3152718,-2.16401,-1.164033,0.1699378,-0.1761538,0.7093046,0.9273655,-0.9911795,0.3713781,-2.283646,0.5120649,0.7384593,0.9755036,1.407975,-4.157417,0.3255943,0.6757289,0.02214861,0.3633559,0.04010369,0.2646631,-0.01154858,-0.5269676,0.2801491,0.3317927
8.533546,-0.7627569,16.5358,-2.243937,1.209108,-6.922935,0.4079062,0.5895613,-6.050572,-10.14105,0.6206862,-0.1254716,0.6110625,-0.4717254,-0.07909211,-2.512811,0.1479757,-3.253771,-1.309582,0.05808737,-0.3462767,-0.7212386,-11.27832,-0.9918557,0.3533309,-0.2321641,0.5023388,0.6737072,8.92629,0.6650663,-0.5935088,0.3114922,0.7133785,0.01753498,0.4282086,-3.32583,0.2449119,1.135714,-0.5351442,0.2477906,0.3083958
8.661545,-1.307303,7.225487,-2.12708,1.253189,-1.393483,0.5702167,0.2201156,6.665837,-9.297987,4.101561,0.215336,0.7562899,-0.2113544,0.5807717,-2.895138,0.4819423,-0.9226796,-0.999535,0.3241456,0.03518887,-0.7645133,6.185699,-0.9492674,0.3604815,2.52439,0.4765376,1.0859,-9.346453,11.10271,-3.933991,0.3438113,0.6720796,0.04813419,0.1438651,4.601034,0.2672542,-0.6247938,-0.4925321,0.2754209,0.3237227
8.789544,-0.5256585,10.87177,-1.713144,1.64116,-7.281351,0.8155165,0.594611,-0.7442249,-17.77985,-5.02204,0.3399082,0.7764119,-0.1134807,0.07075462,-2.692265,0.4883986,-0.9370542,-0.9935868,0.3558098,0.008812502,-0.8508742,-2.33285,-0.8499295,0.4269284,9.752843,0.5018117,0.6432952,4.379513,7.949006,2.472174,0.3599746,0.6721529,0.06204611,0.3531653,4.887303,0.2861225,-0.4133582,-0.4951721,0.3123693,0.3332196
8.917543,-2.287327,10.26633,-1.698598,1.589699,-7.378238,0.8091741,0.4039132,-13.6338,9.156433,1.858245,0.3043447,0.6877496,-0.1520111,0.580365,4.522986,0.4264131,-2.522673,-1.023194,0.3570744,-0.01207032,0.7216517,-3.579581,-0.8425046,0.4346695,1.047459,0.5158998,0.8177282,3.769276,2.151515,-1.040681,0.3663915,0.6714979,0.06272319,0.0495828,-4.718568,0.2721798,-0.2316837,-0.4766825,0.3212757,0.3390963
9.045543,-2.340869,-5.111758,-1.696967,1.565389,-16.44518,0.7646742,0.5368974,7.46096,-1.384049,-4.47646,0.2169665,0.5942453,-0.2495713,-0.2127937,-0.8395531,0.3464366,-1.786086,-1.107948,0.2725784,-0.08042726,-0.1860087,-3.602242,-0.8564593,0.4456496,7.333028,0.5267035,0.9823693,-4.414554,6.639864,1.02723,0.3486018,0.73309,0.04272167,0.2508729,-2.216831,0.2621917,0.3738437,-0.5196842,0.3152597,0.3472465
9.173542,-2.61816,-11.01535,-1.759176,1.433068,1.184746,0.6636853,0.9240195,1.451961,-6.223585,2.668796,0.07601775,0.5509607,-0.4136712,-0.3185459,-3.423496,0.172528,0.1016447,-1.215868,0.181765,-0.1974291,0.6573957,6.965448,-0.8624825,0.4304808,-2.674525,0.5286286,0.4779347,2.108426,6.482528,-1.536291,0.3420877,0.6901811,0.02596811,0.5379357,0.8185222,0.2687369,-1.211636,-0.5475405,0.3094083,0.3387502
9.301541,-3.259719,-1.675809,-1.823158,1.331781,6.165334,0.5549387,0.8770797,3.68119,-18.24464,-2.533215,-0.04927831,0.5000516,-0.5675332,-0.1998115,8.656201,0.01594165,-2.965667,-1.384405,0.1079072,-0.3666655,0.479064,-8.885365,-0.8297978,0.4304771,-10.90911,0.5135919,0.3108166,2.600676,6.084715,1.339668,0.3327349,0.6796649,0.02320039,0.5602984,-6.55919,0.2567434,1.290553,-0.5521004,0.3203527,0.3300399
9.429541,-3.093081,5.268641,-1.973161,1.246952,21.27083,0.5497172,0.2778218,-3.540933,12.1333,-1.947624,0.06584222,0.4785482,-0.4952785,0.1599825,-3.758714,0.2179172,-2.474736,-1.146997,0.3145099,-0.08212975,0.8123156,-5.208708,-0.876601,0.4335042,-17.17548,0.524217,0.5656567,1.35184,-1.656358,0.6176367,0.3368506,0.6913313,0.0262352,0.2964551,-1.098609,0.2624385,0.5537912,-0.4991374,0.3332526,0.3353253
9.55754,-1.831456,-15.92055,-1.675724,1.645587,-8.599038,0.9548728,0.9166244,12.19102,13.30564,-5.350442,0.3051393,0.6679046,-0.2986979,0.2371912,-6.694309,0.3416676,-1.158275,-1.101816,0.3242967,-0.1062372,-0.5317823,9.359651,-0.8613036,0.4972569,6.454636,0.5253391,0.4963689,-8.743309,-9.445562,3.271744,0.3407157,0.6357244,0.02712088,0.1861133,1.330591,0.2672133,-0.728537,-0.4871168,0.3399772,0.3366886
9.685538,-3.805886,19.49899,-1.845409,1.58215,-3.805385,0.9501274,0.8990594,-20.31969,19.83562,1.508228,0.2489464,0.6462314,-0.3238044,0.02909191,0.5603661,0.2720163,-1.257626,-1.153146,0.3200236,-0.1080365,1.347064,-10.82604,-0.9029563,0.4991056,9.061717,0.5198646,0.4513938,15.372,-10.68862,-0.9246059,0.33668,0.6300514,0.02538913,0.4291736,1.220042,0.2530396,-0.6218477,-0.4501446,0.3438217,0.3416398
9.813538,-3.067261,5.324663,-1.943609,1.535613,-4.914472,0.9070625,1.08083,-11.46408,-17.46791,-0.4770141,0.1790469,0.5721129,-0.4170324,0.09223535,5.68289,0.2798674,-1.920843,-1.119404,0.2924339,-0.1358536,1.008,-2.505072,-0.9549256,0.5001399,1.177236,0.5621752,0.2912801,9.333999,11.41842,-1.543317,0.3232433,0.6500589,0.004983288,0.2261657,-10.52935,0.2711558,-1.139421,-0.5918519,0.3749295,0.3454078
9.941537,-2.077483,-8.670394,-1.998789,1.367136,-18.65199,0.8304866,0.1031817,11.01774,2.132741,-8.544901,0.004603917,0.5109121,-0.6043877,0.1123118,1.70975,0.09336872,-2.752218,-1.272965,0.2031484,-0.2917072,-0.3277398,0.9759807,-0.9730131,0.5006943,15.02223,0.5727425,0.8082425,-3.998622,0.6878724,1.854018,0.3238845,0.6308777,-0.00680151,0.2829358,-2.875157,0.2693461,-0.1089736,-0.5777531,0.3756699,0.3484609
10.06954,-2.572575,-10.16736,-2.135284,1.221854,7.586708,0.6671997,0.2449138,-6.004687,8.728208,4.023666,-0.155292,0.4359836,-0.7818834,-0.03293707,0.5978234,-0.04742587,-4.285017,-1.419441,0.114157,-0.4453048,-1.008919,1.648818,-0.9927285,0.4825066,-3.079618,0.5715755,0.7125438,4.292073,-1.570194,-5.247478,0.3107999,0.6224052,-0.01665502,0.1442185,-2.932809,0.260426,1.707684,-0.5813144,0.3783561,0.3472367
10.19754,-2.802644,11.04275,-2.223315,1.1113,3.944186,0.6472704,0.7618526,-18.07337,-8.560141,-4.761702,-0.03848184,0.3976219,-0.7129459,-0.4887457,-3.746895,0.211944,-2.436137,-1.080442,0.3730999,-0.03261866,-0.4376793,-5.969066,-0.9935778,0.4718166,-0.6989698,0.5582779,0.30345,-3.070795,7.579834,0.9306614,0.3318333,0.6861612,-0.006060812,0.8810239,-0.5630909,0.2800182,0.4881038,-0.5676317,0.4069344,0.3571946
10.32553,-3.329188,7.563017,-1.80241,1.580752,-8.334426,1.062937,0.7174095,-1.387114,8.98507,0.723755,0.2724691,0.6342437,-0.4156809,0.02148179,6.854589,0.459051,-2.266062,-0.910345,0.4713004,0.08012157,1.095798,-3.099349,-0.9522814,0.529746,5.635618,0.609613,0.6779385,9.435001,-2.90921,-1.281939,0.3495964,0.6730389,0.01267066,0.532847,-4.175716,0.2981417,0.3110882,-0.5614654,0.4110509,0.3716351
10.45353,-1.971762,-14.5292,-1.746261,1.594953,14.06749,1.050121,0.9338675,19.31012,8.822603,-1.397994,0.2530988,0.6714225,-0.4173235,0.3163711,-9.682139,0.4590824,-3.063276,-0.8948548,0.4716777,0.08905761,0.6274056,4.519484,-0.9587724,0.5285794,-4.315805,0.6178202,0.4996186,-13.67798,-6.518136,0.1177156,0.3524001,0.6796269,0.006895745,0.3848357,9.2176,0.3007066,0.5419203,-0.5830894,0.4179599,0.3737533
10.58153,-2.998214,1.859989,-1.741612,1.575432,2.20371,1.039872,0.5434686,-7.1543,-22.79859,0.9539519,0.2130309,0.6486752,-0.4347889,0.4184817,-5.653849,0.4036293,-3.888232,-0.9761636,0.418394,0.0173784,-0.1123626,-1.543284,-0.9506785,0.5353723,5.477484,0.6299887,1.039533,1.854606,16.19863,-2.303215,0.3520994,0.6624634,0.004674687,0.2612111,8.139062,0.3037678,0.5357832,-0.5545766,0.4161455,0.3778704
10.70953,-1.189126,10.75545,-1.859768,1.445725,6.030554,0.9539773,0.6867942,2.97848,0.8642183,-2.835779,0.05738454,0.5992926,-0.5753632,-0.003147528,-6.913705,0.2282813,-2.040221,-1.111333,0.3152601,-0.1308731,-0.7909181,-3.150649,-0.9621608,0.5207428,-0.4584431,0.5968147,0.6025361,-3.699812,-0.6726533,0.1130854,0.3363274,0.6472508,-0.001952488,0.2470806,4.910687,0.2943248,-0.7548962,-0.5860686,0.4127924,0.3660391
10.83753,-2.736312,1.956072,-1.966437,1.293303,4.997416,0.8360325,0.3418944,-10.72001,-14.14821,-5.005867,-0.1036631,0.422854,-0.7300441,-0.2869782,-8.206376,0.07164223,-3.765587,-1.232846,0.2254443,-0.2846695,-0.2710461,-12.09918,-0.9774681,0.515245,-4.606024,0.5866386,0.6492637,11.0129,4.009955,0.4428063,0.3312687,0.6803125,-0.008963965,0.3954653,10.73748,0.2854773,0.3666325,-0.593712,0.4140043,0.3642368
10.96553,-1.839429,-7.871588,-2.095407,1.179385,-6.626383,0.7810475,0.09430095,0.8651909,-9.969995,-4.201782,-0.02433797,0.4941042,-0.6900596,0.2206342,2.275902,0.2640032,-3.072479,-0.9596091,0.4366175,0.07044496,-0.02137962,3.864022,-1.006676,0.5024762,-4.351657,0.5983082,0.9833511,5.312042,-2.969786,-1.569089,0.3351589,0.6338188,-0.0006131735,0.414199,-1.878761,0.2910715,-0.7355638,-0.5686868,0.4314685,0.3871173
11.09353,-2.437924,7.62452,-1.701653,1.647487,-2.241801,1.176767,1.118388,-5.000452,4.901752,-3.033345,0.2721625,0.7087628,-0.3900304,0.654295,5.169299,0.5675561,-6.52541,-0.7460384,0.5536759,0.214817,1.169023,-15.23196,-0.9637262,0.540231,3.613345,0.63278,0.6410816,5.266706,-0.2645279,-1.142974,0.3602029,0.6911401,0.01373356,0.1628624,-10.79923,0.3143089,0.7036487,-0.6081569,0.4526202,0.4020495
11.22153,-2.445293,8.642212,-1.719648,1.605868,-6.894779,1.212517,0.8502447,9.873171,7.72057,-3.558548,0.2023312,0.6918722,-0.4346614,0.8120591,-3.677386,0.4897155,-3.797289,-0.790766,0.5188843,0.1787299,-0.6149427,-3.589845,-1.004553,0.5617363,7.562916,0.6596618,0.720299,-3.326088,-4.544648,-1.777295,0.3686853,0.684007,0.02476784,-0.1095667,-0.5107669,0.3210165,-0.1337467,-0.586594,0.4461269,0.399229
11.34953,-1.664111,3.275665,-1.790651,1.569228,-16.63082,1.10624,1.394145,-0.7092192,-5.01301,4.730614,0.1836294,0.7065923,-0.3809679,0.139286,-0.1597327,0.3564478,-0.4352551,-0.9444515,0.3786487,0.01502281,-0.246856,-6.710863,-0.9883643,0.5588223,7.657187,0.5942972,0.4025725,5.756883,7.445987,-2.66413,0.3454809,0.6473722,0.02778785,0.4091379,4.094829,0.2747557,-0.6047858,-0.4351574,0.3907028,0.3935021
11.47753,-3.353016,-15.92198,-2.000053,1.393766,-21.91764,0.7959442,0.8980088,-17.96428,1.396762,2.642789,-0.008875114,0.5375094,-0.520402,0.3868012,1.990407,0.05943603,-0.1117886,-1.23103,0.2171902,-0.2810316,0.9266727,3.256242,-1.002726,0.5334637,6.325794,0.575186,0.6746473,5.743258,2.878927,-1.81593,0.3304301,0.6222064,0.0288651,0.2451573,-3.023611,0.2442966,-0.8676341,-0.3932818,0.3643674,0.3869575
11.60553,-2.50238,15.4571,-2.500604,1.206896,-12.64083,0.5693465,0.3481009,-2.122327,-6.299327,2.416377,-0.1870058,0.4001999,-0.6909738,0.02961341,-9.406017,-0.2409837,0.3277312,-1.485218,0.07036198,-0.558719,-0.5521387,-6.947042,-1.145918,0.5245329,6.311062,0.5641757,0.8368182,8.262269,7.002863,-1.872531,0.3097362,0.5700354,0.02689864,0.159175,6.642588,0.2242569,-0.7974806,-0.4011117,0.3624656,0.3665283
11.73353,-3.853175,-34.11959,-2.759317,1.018652,-3.92301,0.4140445,0.001628065,29.45667,0.2777123,-2.769183,-0.283718,0.3393704,-0.7942438,-0.3515206,-11.76085,-0.2363474,-0.2143845,-1.345939,0.1980884,-0.3069737,0.8693783,17.33436,-1.196954,0.5151905,1.698593,0.5170365,0.6263764,-23.72816,0.7847959,2.739554,0.3121049,0.5769947,0.03169467,0.1080242,6.316739,0.2202354,0.7001675,-0.3834187,0.3688475,0.3684114
11.86152,-3.012154,-11.60433,-2.397855,1.317649,-1.831009,0.6795948,0.6740184,-6.488764,18.50327,-0.1742142,0.05177662,0.3955235,-0.4682343,-0.1304089,-9.176738,0.101073,-0.1521898,-1.151191,0.2754121,-0.21446,-0.2814549,11.92514,-1.157311,0.5414221,7.92515,0.5565506,0.296334,-0.7274412,-13.44051,1.593081,0.3388572,0.6778201,0.04916963,0.4273409,5.274564,0.2281191,-0.4284977,-0.3634837,0.3712189,0.3902483
11.98952,-1.208534,-4.502305,-2.355973,1.304709,14.24229,0.5998056,0.4133404,5.208735,10.26435,1.416214,0.003512915,0.4422239,-0.5140502,0.0366065,-12.49385,0.0310476,-0.2233838,-1.209334,0.2565881,-0.2257579,-1.010746,6.278844,-1.145927,0.5223224,-4.927415,0.5571182,0.7463853,-2.792636,-4.585284,-0.5698543,0.3377239,0.6241586,0.04426227,0.1056016,8.95354,0.2405131,-0.2867264,-0.3629361,0.3742045,0.3737019
12.11752,-2.224123,7.469079,-2.355915,1.269185,-14.34307,0.635427,0.1349743,5.945186,-0.654847,2.925104,-0.02227074,0.4104736,-0.5287223,-0.09988633,-5.156145,0.02753525,0.6264885,-1.23831,0.2327063,-0.3070031,-0.280761,1.606574,-1.13929,0.522369,3.435302,0.5515031,0.7075882,4.912858,-2.688246,1.015612,0.3370375,0.6129,0.03128067,0.03853063,2.824672,0.2421769,-0.8793447,-0.3998612,0.3731479,0.383222
12.24552,-2.42608,4.074862,-2.416356,1.161564,9.295179,0.5711755,0.4403573,6.021918,9.670217,-3.452226,-0.1427905,0.3434638,-0.7076659,-0.271106,7.220426,-0.1075215,-0.6607757,-1.361076,0.1529612,-0.4338929,0.1437202,1.540667,-1.127622,0.510901,-4.256679,0.5580734,0.4971559,-6.834239,-4.502047,2.718841,0.3261949,0.6223462,0.01556283,0.2202739,-6.690717,0.2302738,-0.7700373,-0.4654621,0.3996787,0.3746282
12.37352,-3.797463,10.68017,-2.505519,1.030946,-4.15617,0.4998334,0.4948484,-4.290899,8.067992,2.154565,-0.2980683,0.2987573,-0.8893407,-0.0493304,1.337328,-0.2472673,-1.539488,-1.43387,0.1060317,-0.5309384,0.8803736,-5.933275,-1.136239,0.5004397,1.269363,0.5696147,0.3918415,5.209795,-3.309656,-1.191138,0.3239199,0.630098,-0.006827084,-0.001622678,-1.519344,0.2390646,-1.752077,-0.523797,0.4155661,0.3685367
12.50152,-2.06477,-3.702478,-2.581991,0.9255248,-17.65662,0.5012875,-0.2238955,15.77649,1.17059,3.529066,-0.234199,0.3505146,-0.8712211,0.1327663,-1.433447,0.0001013238,-1.841115,-1.106487,0.3190078,-0.1691613,-0.3722281,-3.518846,-1.130945,0.4885672,10.08857,0.5525277,1.118681,-7.599556,-2.099824,-0.4304242,0.3477418,0.5773964,0.001183591,-0.1076493,2.017277,0.254089,-1.334564,-0.525009,0.4451495,0.3873909
12.62952,-2.077513,14.72027,-2.217805,1.298684,-4.568964,0.8117544,0.4879606,-2.90211,-12.58605,1.434578,-0.05299699,0.3987874,-0.6891484,0.05802938,-3.234551,0.1032349,-1.773409,-1.104821,0.343584,-0.1527579,-0.4829112,-8.837696,-1.092417,0.5304952,5.558631,0.5819261,0.86721,3.164646,9.373813,-2.047583,0.3618833,0.6479861,0.01637061,0.2345609,0.6456595,0.2751102,-0.7496874,-0.5044126,0.4565733,0.3997847
12.75752,-2.48773,-8.312924,-2.322055,1.24405,-23.70489,0.756659,0.4492172,6.600999,3.761485,-2.656586,-0.1312625,0.4001286,-0.7566673,-0.002355376,2.059763,0.04605568,-1.514318,-1.12625,0.3455804,-0.1588888,-0.1351998,7.310361,-1.122588,0.5375497,6.849488,0.5768185,0.7690846,1.863179,-3.676878,1.045165,0.3546698,0.6049324,0.01200833,0.2823621,-0.8261326,0.2723799,-1.167146,-0.5138815,0.4718367,0.4033376
12.88552,-1.566456,-9.633862,-2.305521,1.225434,-6.011715,0.7618296,0.9694109,13.69437,-0.1568487,2.979555,-0.2097854,0.348473,-0.8296263,-0.3123835,1.314109,-0.03510663,-2.658271,-1.232044,0.2891086,-0.2330633,-0.03630953,5.221872,-1.118715,0.5482478,1.801909,0.5830897,0.745996,-7.097098,-5.984657,-1.431699,0.3634433,0.615956,0.006055732,0.3081284,-5.004158,0.2678802,0.04383193,-0.5307835,0.4795658,0.4034992
13.01352,-2.572178,-1.795548,-2.422214,1.111596,6.673606,0.6265616,0.3091472,4.971829,-9.703034,4.882261,-0.3529727,0.2152711,-0.9973926,-0.4860848,4.000367,-0.2306602,-1.909157,-1.386541,0.1866208,-0.3930773,-0.392831,-2.687187,-1.115919,0.5402987,-6.582399,0.5873778,0.6959319,1.167459,8.441742,-4.119457,0.3500023,0.654264,-0.00175072,0.5718272,-0.03387186,0.2619061,-1.325392,-0.5449896,0.4787125,0.4034425
13.14152,-4.389549,-22.65348,-2.572017,0.9657353,9.256677,0.4742835,0.5307553,7.897111,1.00552,0.6794283,-0.5120474,0.1074228,-1.173815,-0.755643,1.386036,-0.4164615,-2.523231,-1.456749,0.153788,-0.4149364,1.349009,6.031077,-1.143564,0.5345756,-10.65466,0.5791429,0.4920369,-2.884976,-13.27004,-0.777658,0.3446097,0.6770636,-0.01682727,0.3695689,-3.300351,0.2485287,-0.4692272,-0.5628549,0.482072,0.3903514
13.26952,-4.778953,10.76694,-2.333477,1.149271,-11.16413,0.6611784,0.4630095,5.099217,6.354407,0.3521671,-0.1137686,0.3997241,-0.810695,0.1761939,-5.7039,0.07518718,-2.989812,-1.063947,0.3992364,-0.05007602,1.473777,-4.976056,-1.097051,0.5400947,2.949214,0.6001468,0.7326226,-10.06225,-4.355956,-1.038146,0.3811808,0.6202713,0.01742775,0.09136598,-0.3746159,0.2850266,0.3318472,-0.525223,0.4914916,0.4162347
13.39751,-2.297696,-18.94067,-2.12232,1.317682,-4.213691,0.7485758,0.989246,-6.435457,13.43128,0.8080376,-0.115714,0.4381855,-0.7835021,-0.2081779,2.557608,0.05449836,-3.203738,-1.121062,0.3846872,-0.0817848,-0.3417128,12.48752,-1.058941,0.5582337,1.502037,0.6145733,0.3410469,-6.758277,-12.24825,-2.424645,0.3898575,0.5901264,0.01236122,0.4583792,0.1748294,0.2914488,0.769945,-0.5251552,0.4954884,0.4238994
13.52551,-1.943189,6.658123,-2.109951,1.286309,7.171737,0.7341942,0.7204856,-7.253125,12.04851,-0.202649,-0.1300757,0.4726183,-0.8001122,-0.2096755,-6.447871,0.04717398,-3.213009,-1.108454,0.3612745,-0.08018689,-0.1266695,0.8447118,-1.049163,0.5392374,2.652957,0.6013563,0.7841173,4.780542,-5.42175,-0.3434423,0.3974662,0.6020998,0.02110391,0.4504645,1.282475,0.2984721,0.2675495,-0.5353965,0.4894607,0.4205464
13.65351,-1.640406,-4.918877,-2.159571,1.228037,-9.40085,0.6319591,0.1805888,-9.882704,0.3045886,-1.092955,-0.2327475,0.3935788,-0.9031579,-0.1857233,-3.086082,-0.06731835,-2.202456,-1.238319,0.2611365,-0.2151614,-0.6859783,7.992949,-1.027992,0.5301667,3.335663,0.5988981,0.8094715,9.073187,-1.632735,0.1561581,0.3920561,0.6148593,0.01041556,0.2995281,-2.971799,0.288984,-1.007531,-0.5475785,0.4890457,0.4131982
13.78151,-2.024601,-5.572568,-2.300068,1.095466,6.137754,0.511956,0.2384149,-1.588002,-14.49622,1.47341,-0.4007195,0.2549148,-1.063004,-0.1651379,7.352139,-0.254214,-1.719362,-1.412306,0.1505502,-0.4020899,0.001334568,-1.86275,-1.048565,0.5289864,-3.667498,0.5910962,0.8332193,4.752353,11.44137,-0.8574743,0.3806171,0.6487815,0.004043364,0.060952,-4.369718,0.2766803,-0.8342515,-0.5684494,0.4731909,0.4076868
13.90951,-2.525558,-6.210075,-2.452045,0.9728197,0.904388,0.4362163,-0.08449497,-15.84698,-6.633464,1.355849,-0.3925705,0.2288317,-1.045897,-0.2823582,-2.213731,-0.0658106,-2.306471,-1.148377,0.317716,-0.1155404,0.152833,0.779341,-1.06819,0.5094986,-2.702489,0.5806051,0.9568762,9.776459,9.855256,-1.479861,0.3849256,0.691056,0.02238243,0.6333598,-0.7111688,0.2916299,-0.205559,-0.514483,0.4773786,0.4146444
14.03751,-2.886262,-10.76862,-2.041959,1.407534,-8.067074,0.803788,0.5618029,10.36256,3.275117,-2.088923,-0.08044747,0.6933455,-0.6167905,0.008315309,5.4416,0.3668508,0.04379273,-1.051224,0.3744244,0.00111514,-0.01055166,6.691158,-0.9988231,0.553499,0.7725255,0.6078129,0.5473748,-3.300415,-8.022778,-0.2079904,0.403484,0.7008569,0.07211767,0.3162769,-8.31025,0.351532,-1.874062,-0.4211808,0.4464638,0.4500601
14.16551,-2.348405,15.71635,-1.949983,1.360161,0.03099966,0.8499158,0.87019,-15.4121,10.78156,-3.765389,-0.2137346,1.039492,-0.509949,0.1059959,-1.308077,0.7771173,-1.526425,-0.9354419,0.2902773,0.01157167,0.2036277,-9.282758,-0.9665662,0.5452062,2.430704,0.6178213,0.3901776,12.3924,-4.426631,2.036372,0.3799081,0.9236895,0.1364134,0.310488,-2.483347,0.5334828,1.128923,-0.2762047,0.3513405,0.5272136
14.29351,-2.811899,-12.74602,-1.790624,1.319393,7.130061,1.025636,0.3345994,-8.916951,11.14977,2.39641,-0.326479,1.730345,-0.2115095,0.05979795,-4.366462,1.323569,1.746328,-0.8688612,0.1317497,-0.07849564,0.05908773,8.368308,-0.8613895,0.4743898,-2.424444,0.6699125,0.6163127,4.341568,-3.984427,1.191938,0.3445006,1.299717,0.2818094,0.2130328,4.138379,0.6917808,-0.01169808,-0.02284093,0.2231183,0.5810361
14.42151,-3.54377,-0.1436858,-1.711508,1.084232,6.54648,0.9879272,0.2334392,3.174225,4.968418,-0.8404582,-0.4360598,1.664568,-0.1335731,-0.1756021,-3.4296,1.159399,-0.3691183,-0.9923,-0.03260769,-0.2172917,0.9302155,3.821082,-0.7938977,0.4066574,-9.268155,0.6807308,0.5729838,3.915589,4.495242,1.874364,0.3210907,1.31005,0.3379,0.6186923,-3.547066,0.6788239,0.5478195,-0.02021037,0.1942384,0.5903615
14.54951,-2.768842,2.310763,-1.875729,0.8894969,-1.170848,0.75512,0.08882254,-8.144567,-10.26124,-5.679588,-0.587824,1.540076,-0.1943512,-0.4662539,0.8366472,0.9253713,-1.255265,-1.122054,-0.1853419,-0.3159686,-0.5955677,1.359629,-0.8066384,0.3744815,1.426779,0.6637228,0.5047959,11.34355,10.02414,4.99986,0.306006,1.253453,0.3485832,0.3784477,3.138772,0.6574465,0.3953594,-0.03588893,0.1814815,0.5786724
14.67751,-4.268726,2.092697,-1.896955,0.7783289,-4.972307,0.7810605,-0.01786172,3.226035,-4.978427,0.3431686,-0.3471342,1.541323,0.05687457,0.2578764,-2.793588,1.193744,1.17564,-0.7487264,0.1360499,0.1773782,0.9273487,-8.082876,-0.8164793,0.369606,8.04322,0.6400682,0.6005399,5.531072,10.52471,0.522548,0.3300162,1.224829,0.3784246,-0.04293522,-4.67696,0.658681,0.0361465,0.01262409,0.2020735,0.5810986
14.80551,-0.8912771,20.16401,-1.51376,1.221995,-12.23997,1.011079,0.06680879,-0.2786234,-5.390071,-2.419112,-0.09708161,1.373741,0.219911,-0.420908,-1.515107,1.052701,1.262346,-0.7781381,0.1257393,0.2278535,-1.072737,-13.77767,-0.7667571,0.4235478,10.37392,0.6821387,0.6635152,5.123565,1.154397,1.250671,0.3402393,1.188556,0.366913,0.591054,1.848274,0.6024533,-0.5679386,-0.09025367,0.2552979,0.5698465
14.93351,-3.721754,15.39806,-1.704582,1.182501,6.929744,0.7845126,0.1207815,-2.203435,-0.5445442,5.602792,-0.06859137,1.071123,0.1704263,0.2371493,-7.243937,0.9751636,-1.225464,-0.757006,0.1330791,0.2257114,1.086703,-4.514711,-0.851658,0.4672078,-3.661215,0.6403102,0.5411071,-1.705327,-4.166696,-2.100379,0.3548814,1.013337,0.3254238,-0.07074892,6.389079,0.5964455,1.062502,-0.1083946,0.2510464,0.5737338
15.0615,-4.243773,18.91637,-1.641013,1.215635,13.16294,0.7975914,0.3843726,-6.103934,11.80581,-8.084918,-0.1183377,0.8403159,0.02996584,-0.555732,8.066449,0.7727254,-1.585158,-0.868387,0.1039619,0.1243625,0.6074298,-6.014677,-0.8317189,0.4630809,-12.80913,0.6175449,0.5237459,10.7973,-9.031615,1.49133,0.3709964,0.9344872,0.2829943,0.4379307,-6.869877,0.5331434,0.6133871,-0.1918316,0.2902364,0.5455512
15.1895,-3.604289,-10.66514,-1.683965,1.048104,-3.489681,0.6356772,0.2814874,-2.080089,10.33887,0.4594451,-0.2747706,0.8095783,-0.1418587,-0.2719388,-12.72013,0.6211526,-1.430027,-1.002702,-0.03447314,-0.05186269,0.9690127,7.428253,-0.8191879,0.4613653,8.047258,0.619168,0.4824315,6.102457,-7.768021,-1.482298,0.3569029,0.9321197,0.2495833,0.2792074,9.119658,0.5335084,-0.3415919,-0.1972617,0.265066,0.5408932
15.3175,-4.043501,-17.73063,-1.789883,0.8647171,-9.774427,0.4723999,-0.2483414,7.986403,-5.443992,-3.07321,-0.414289,0.7140434,-0.2924171,-0.2506488,-7.913146,0.5299417,-0.4293853,-1.098246,-0.05534477,-0.09330644,0.7618877,5.703195,-0.8083873,0.4267175,6.418453,0.6297634,0.7255101,2.360611,8.484158,0.6267947,0.3423339,0.9422453,0.248912,0.08352741,2.09722,0.498571,-1.315024,-0.1990665,0.2513545,0.5137524
15.4455,-3.559684,-5.384516,-1.561966,1.109163,4.622873,0.8019374,0.1187468,18.08788,3.137464,-0.167818,0.008116503,0.9517595,0.1382866,0.2539041,-10.02231,0.9603736,0.6036606,-0.6800368,0.200457,0.24968,0.5193974,1.457746,-0.7672297,0.4200523,-0.8583354,0.6332214,0.764253,-10.11607,1.00305,-0.2969046,0.3735403,0.9449593,0.2851,0.1681024,4.353421,0.5454235,-1.646597,-0.152897,0.2548798,0.5427108
15.5735,-2.894913,-3.621602,-1.363475,1.298304,17.79868,0.9111418,0.07928187,7.39519,-8.801121,-0.2055067,0.03703839,0.9891064,0.2117941,-0.3118792,4.267455,0.9458159,0.6632633,-0.733289,0.1793131,0.2253164,1.292422,3.685506,-0.7151471,0.4422326,-11.29561,0.6448062,0.6701052,-5.350358,9.755893,-0.9216022,0.3732589,0.9240497,0.2910309,0.5469362,-3.984671,0.5313055,-0.9625972,-0.1539418,0.2533377,0.5487542
15.7015,-3.793681,-5.436967,-1.419088,1.256159,-3.048382,0.8982448,0.06272178,-1.945028,-0.3328574,3.715635,0.0412963,0.8837237,0.2313039,0.01157178,-12.07382,0.9040687,0.7501146,-0.7764859,0.1692526,0.2112302,0.2214805,-1.350219,-0.70721,0.4263051,7.209043,0.6394497,0.4850174,0.9941559,-5.156961,-2.531213,0.3701214,0.978934,0.2830636,0.1945738,3.607957,0.5431333,-1.816721,-0.1330595,0.2495818,0.5485827
15.8295,-3.99035,-15.37367,-1.486686,1.169875,-1.335919,0.7971648,0.1271287,18.1165,-34.23602,0.5980468,-0.08325798,0.8761919,0.08512929,-0.1783403,0.8558578,0.7417979,-0.4019013,-0.9370862,0.07645029,0.0693908,0.9340574,2.74131,-0.7180924,0.4277158,2.666723,0.6281048,0.6678786,-14.73415,16.65913,-1.268566,0.367737,0.909468,0.2764755,0.5333138,0.4696347,0.5131476,-0.1991442,-0.1570688,0.2510495,0.5335986
15.9575,-4.083738,-5.655507,-1.654402,1.003271,-4.661842,0.6360703,-0.1042437,-16.44635,-1.363998,-0.1984556,-0.2252442,0.6862204,-0.1487956,0.1092125,8.33879,0.5392817,-0.7571887,-1.145333,-0.04263755,-0.1225744,1.532092,3.766159,-0.7437798,0.4185163,8.506105,0.6129664,0.8963747,6.190324,8.701543,1.821815,0.3459268,0.9275812,0.2513788,-0.03987567,-3.822629,0.4895796,0.388557,-0.1737337,0.2507196,0.5231792
16.0855,-3.582952,8.750876,-1.805706,0.8435016,-13.18985,0.4841567,-0.3785313,2.808359,8.977634,0.6526883,-0.3255984,0.6125088,-0.2862683,-0.507027,0.1233289,0.5029864,0.6376142,-1.041167,0.08237543,0.09458249,1.390219,-8.395531,-0.7743803,0.4100646,7.296179,0.6056686,0.7619913,-2.170009,-0.8358451,1.066064,0.3484156,0.8603469,0.2192464,0.6123223,0.4344844,0.4800023,-0.5894955,-0.1701175,0.2695792,0.5177051
16.2135,-1.656539,-5.280625,-1.551334,1.237231,4.963762,0.8204142,0.4840073,-2.383475,-13.62429,-3.980194,0.03587206,0.7948127,-0.02175776,0.1667582,-6.834336,0.8022211,-0.9951314,-0.8333377,0.196099,0.2505428,0.1068,7.470488,-0.7448937,0.4505431,3.492078,0.6339752,0.4482172,3.600473,8.826715,2.499994,0.3838864,0.8751011,0.2342648,0.04923376,5.850767,0.4966654,0.5729375,-0.1659799,0.2788606,0.5486814
16.3415,-2.534148,-5.431133,-1.560284,1.227515,-4.878709,0.77521,0.530866,15.64288,-21.90362,-1.557643,-0.008018401,0.8197939,-0.1003489,-0.1067529,-1.000687,0.7354785,-0.5987111,-0.8850027,0.1877465,0.2234832,0.3857281,7.446375,-0.748561,0.4561317,3.451132,0.6360533,0.3723224,-10.15527,12.86287,-1.282614,0.3721398,0.8204616,0.2077753,0.3160311,-1.559233,0.4982504,-0.6357756,-0.1801212,0.2857888,0.5388971
16.46949,-2.069983,-11.5241,-1.569262,1.222667,-12.77595,0.7902083,0.2991806,6.466974,6.030917,-2.545031,-0.02731457,0.7777488,-0.1627368,-0.3218966,-0.4828251,0.710142,0.1485128,-0.941267,0.1481542,0.1661747,-0.275394,0.7900195,-0.7564814,0.4638495,13.02688,0.6273083,0.430916,-4.133326,-6.793124,0.7393708,0.3763203,0.8772064,0.2075475,0.430148,-2.416955,0.4882804,-0.09562582,-0.1794587,0.2889036,0.534945
16.59749,-4.233227,11.25489,-1.66269,1.100213,3.243448,0.6833184,0.1703725,-2.891186,2.277388,-1.110246,-0.1625486,0.6500572,-0.3054959,-0.2785843,-0.6398831,0.5468149,-1.185016,-1.076479,0.04268406,-0.01177896,0.7366908,-1.422754,-0.7613464,0.4523894,6.285275,0.6289632,0.611975,2.306081,-3.551066,-0.654622,0.3719614,0.8780256,0.1789791,0.303153,4.110469,0.472964,-0.6117975,-0.233822,0.294293,0.516101
16.72549,-3.865516,16.2736,-1.832415,0.9539136,8.756429,0.5630447,0.4407748,-1.321751,0.2579746,0.197105,-0.3176096,0.5180862,-0.5155187,-0.5704015,1.655339,0.3481365,-2.361859,-1.282155,-0.05731103,-0.2067063,0.9374253,-10.87833,-0.7739529,0.4414576,1.153968,0.6119423,0.5382436,7.329774,-7.84709,-1.072432,0.3601876,0.8998234,0.1658073,0.3891089,-2.78928,0.4756418,0.5728256,-0.2445813,0.2941207,0.5032455
16.85349,-3.209458,11.73866,-1.905116,0.8945757,11.46886,0.5562984,0.538592,6.841266,-5.85513,-9.905046,-0.1652361,0.6330391,-0.4180744,0.3709232,1.811814,0.6103939,-1.297826,-0.9348094,0.1677291,0.1440218,0.3855127,2.091147,-0.7970607,0.4366914,-9.315872,0.6214154,0.2613341,-4.668544,5.915831,4.975031,0.3871686,0.850197,0.1763301,-0.1324291,-2.670309,0.4728903,0.2658201,-0.2408188,0.3120148,0.5090491
16.98149,-2.316785,-6.041876,-1.613373,1.207547,-16.20158,0.7710795,0.2426187,1.878494,7.428247,0.4314361,-0.05572506,0.6979656,-0.3321583,-0.230592,5.961865,0.611805,-1.464782,-1.03372,0.1444529,0.06652592,0.1251587,-1.230884,-0.7549994,0.4704497,7.590679,0.6290935,0.5548577,0.9027646,-5.7921,-1.197964,0.4006545,0.8448108,0.1651971,0.2450424,-1.001742,0.4722671,-0.6774585,-0.2371292,0.3226797,0.5075455
17.10949,-1.7206,4.441314,-1.686084,1.142307,1.957774,0.7018142,0.2920877,3.396544,10.22057,0.3854185,-0.08774134,0.6583592,-0.4272009,0.1535226,-7.861469,0.5581837,-0.6740606,-1.011295,0.1466713,0.05063052,-1.319968,1.016148,-0.7772605,0.4650875,2.585857,0.6297295,0.4794246,1.69335,-5.638847,-0.6418688,0.3960091,0.7914026,0.1622105,-0.05072443,4.720769,0.4711495,0.3736686,-0.2614408,0.3407752,0.509257
17.23749,-2.995313,2.240059,-1.77942,1.104101,3.844854,0.6771533,0.08043715,-0.504265,2.892039,-2.758774,-0.1741734,0.4983864,-0.5518177,-0.3246655,-3.151555,0.4257291,-1.843042,-1.121612,0.0651357,-0.03187101,0.2584368,3.564073,-0.7880177,0.4726161,6.488474,0.6113836,0.6569172,4.247249,-4.537678,1.400265,0.3935594,0.8554592,0.1464623,0.3228926,0.09266338,0.4596446,0.7261214,-0.2909066,0.3457537,0.5092866
17.36549,-4.18763,-16.30206,-1.96319,0.9582601,3.31785,0.4780674,0.3318196,7.30471,3.810426,-0.07524723,-0.3410767,0.4048627,-0.7464671,-0.5676667,4.917141,0.2176373,-0.6454484,-1.271641,-0.05193428,-0.1615193,1.502907,9.917369,-0.8262529,0.4659585,2.163407,0.6167616,0.4684511,-2.221804,1.217812,-0.1058539,0.3800696,0.782154,0.1394422,0.3556546,-4.444908,0.451558,-0.9493622,-0.3075739,0.3453732,0.5190097
17.49349,-4.216094,8.698355,-2.261454,0.7973899,-8.697919,0.3566789,0.01330673,-2.754087,8.367296,-8.040432,-0.4844181,0.326114,-0.9074544,-0.003256937,-2.664361,0.08575939,-0.7610722,-1.211257,0.02142711,-0.007030448,1.291695,-5.827673,-0.882546,0.4666258,9.255541,0.5873592,0.6641934,0.113407,1.744794,4.553418,0.3742939,0.7805647,0.1208831,0.1875842,2.437636,0.4339813,-0.4551808,-0.3227003,0.3543288,0.5171393
17.62149,-2.312624,8.803164,-2.058561,1.130677,5.377798,0.7016438,0.1115795,-20.69872,-3.715142,0.0776065,-0.06201302,0.5417347,-0.4935162,0.02706444,1.132411,0.5137661,-1.999385,-0.9113321,0.2216281,0.2353699,0.3522961,-1.760908,-0.875105,0.4979256,-2.27845,0.6180873,0.6909489,9.299195,-6.696444,-0.652069,0.4128607,0.7769988,0.1444542,0.3268142,0.716158,0.4413687,0.580855,-0.2975561,0.3684403,0.5281704
17.74949,-1.979575,-11.48996,-1.939009,1.213424,-3.690071,0.7374826,-0.09194246,19.08484,-3.343558,4.827993,-0.08827608,0.5426003,-0.5346665,0.1074367,4.322524,0.4699039,-0.6574181,-0.9259515,0.2087879,0.1918862,-0.2541445,7.669768,-0.8655179,0.5171883,-9.077359,0.6247359,0.8349884,-9.586412,-1.484151,-3.901344,0.4167313,0.7512209,0.1495284,0.07976069,-6.354638,0.4451966,-1.019025,-0.3104525,0.3729866,0.5300368
17.87749,-2.377177,-5.813302,-1.92986,1.18609,0.7545792,0.7348046,0.4812327,12.70415,-9.004808,-1.411815,-0.08864411,0.5664614,-0.5161372,-0.4307013,-1.087917,0.4519515,-1.139683,-0.9479577,0.1784324,0.152148,-0.1425852,2.921628,-0.8631055,0.5123517,-5.402204,0.6394076,0.5431483,-1.280494,-0.1832147,-0.9680013,0.4194704,0.7574692,0.1464211,0.5610501,-0.5251862,0.4452503,-0.7333913,-0.3183289,0.376608,0.5327892
18.00549,-0.9083154,-7.658506,-1.985245,1.08336,14.50717,0.6366832,0.4472101,-5.113923,2.109886,-1.533252,-0.2157785,0.5067198,-0.6414084,0.2078346,5.539343,0.3131736,-2.893539,-1.101878,0.0910053,-0.01992373,-0.7199203,2.136163,-0.8554091,0.5095708,-2.846669,0.6385745,0.5208009,7.375537,-0.05050097,1.281668,0.4116379,0.7579945,0.1333816,-0.2076266,-2.719229,0.4472238,0.5358531,-0.3408422,0.3693765,0.5247584
18.13348,-1.573464,7.793063,-2.139776,0.94095,-15.96194,0.5096154,0.6767604,-0.4475372,-11.708,0.06151367,-0.3702311,0.3908448,-0.8123338,-0.6876304,-9.770422,0.1274339,-1.29634,-1.294825,-0.03278447,-0.187247,-0.8784398,-5.374865,-0.8634238,0.4942812,5.346466,0.6218055,0.2627347,1.2291,7.633994,-0.9255088,0.4014889,0.7727861,0.1203321,0.4362286,9.477254,0.4371238,-0.8809481,-0.3546644,0.3722015,0.5115689
18.26148,-3.305062,-19.36906,-2.283411,0.8279916,-17.31072,0.3779194,0.05538994,13.36704,-16.31612,-1.269024,-0.3338494,0.3566506,-0.7899172,-0.0771196,-0.1269178,0.2688194,-1.606008,-1.014918,0.1922657,0.1659693,-0.06386444,9.850549,-0.9018288,0.4783304,-0.1631522,0.6295018,0.524541,-9.070023,1.695008,0.1044767,0.4167045,0.7657692,0.1259296,0.4572277,-5.145066,0.4233945,0.6480964,-0.3346472,0.3868884,0.5139862
18.38948,-2.579179,-3.492614,-1.914402,1.270699,-14.95247,0.8000407,0.547945,-6.694036,-12.13403,-0.9024921,0.01424507,0.5265296,-0.4861261,0.2456865,5.660305,0.4957195,-1.193417,-0.8620679,0.2911317,0.266469,0.4881863,3.809969,-0.8474092,0.5289789,11.04112,0.6451072,0.9160897,9.220562,10.10859,-1.161402,0.445758,0.7473945,0.1382901,0.2058153,-1.711185,0.4220254,-0.102629,-0.3431478,0.395136,0.5217649
18.51748,-2.018385,-1.948096,-1.851463,1.260167,-12.6223,0.7842991,0.8764861,5.624075,16.10809,0.3458338,-0.0117821,0.5341439,-0.5302478,0.3898353,-1.496308,0.464378,-2.070007,-0.899553,0.3036394,0.2510194,0.01801585,1.8177,-0.8485503,0.5351025,-0.08060272,0.6634582,0.1762935,-0.9500535,-6.58432,-0.416954,0.4402098,0.7547916,0.135298,0.03631321,1.302181,0.4218016,0.6797691,-0.3467258,0.4171052,0.524013
18.64548,-2.479066,-16.93124,-1.846691,1.230119,-5.03988,0.8063436,0.5671593,1.549066,1.733452,0.7476025,-0.07542204,0.5290907,-0.553697,-0.1794282,0.5590449,0.4147465,-2.454592,-0.8945832,0.2702945,0.2220194,0.8522389,11.16888,-0.850405,0.5276027,6.326245,0.6511191,0.4673331,4.662725,-0.3022347,-2.788494,0.4421076,0.7237468,0.1337114,0.3593068,-2.820265,0.4297335,0.02093366,-0.3553928,0.4263,0.5416653
18.77348,-1.432507,-21.84713,-1.998589,1.094485,7.297045,0.6329792,-0.09162331,2.900397,-7.15223,0.5070989,-0.2020735,0.4223976,-0.6810668,-0.03377795,-1.675131,0.3107994,-3.100041,-1.011898,0.1827804,0.03810102,-0.03775306,12.48052,-0.8983812,0.5210106,1.915235,0.6537449,1.074213,2.616246,-3.612213,-3.723807,0.4237835,0.730885,0.1193754,0.3045058,6.82276,0.4200779,0.03626684,-0.3771414,0.4115558,0.5128403
18.90148,-1.246852,-0.8308169,-2.171388,0.9619287,-13.90989,0.5445167,0.5182067,15.95423,-5.414342,-2.664274,-0.3549022,0.3908863,-0.7246773,-0.07248994,2.507885,0.2053376,-1.49967,-1.041884,0.07594576,-0.06973088,-0.508427,3.623103,-0.9396455,0.4867049,2.602363,0.6393573,0.7659326,-9.78488,5.439394,-0.2266778,0.3868873,0.6859547,0.09625341,0.3086496,-5.011843,0.3924272,0.7210832,-0.3578191,0.3446286,0.4736633
19.02948,-1.853856,10.14861,-2.284192,0.9896204,0.8697386,0.6522709,0.6462725,-14.82689,2.441734,-0.2808158,-0.01897771,0.5048096,-0.1669949,0.3938498,0.8467213,0.7742035,-0.03662489,-0.5929831,0.3565853,0.6123812,0.3704375,-1.70976,-0.9846907,0.4560669,-0.9206044,0.6231623,0.2871442,6.304469,-0.7014759,-2.111972,0.3566278,0.7498733,0.1052636,0.3406021,0.2307997,0.3613563,-0.2150229,-0.2565115,0.2681056,0.5321907
19.15748,-2.126271,7.16116,-1.576525,1.462082,-6.559104,0.9115415,0.7453976,-8.913784,-10.8999,0.3607182,0.1646101,0.7575577,0.2890272,0.4176684,-8.882965,1.008871,-0.553699,-0.503787,0.4450565,0.5974222,1.133841,-4.382467,-0.8097258,0.4603286,5.243157,0.6498512,0.7841915,3.11116,7.518808,-0.8468746,0.3516514,0.7215679,0.1512215,0.571287,9.559683,0.3878477,-0.7434124,-0.3030792,0.2682074,0.5013353
19.28548,-2.578354,-15.14119,-1.314504,1.534357,-4.682178,0.9616164,0.8885183,-14.82667,16.18233,-3.496649,0.2087673,0.8746011,0.5334893,0.9291871,2.351808,1.119565,-1.055931,-0.4158192,0.526736,0.6866779,0.2479249,5.038421,-0.7450929,0.444253,4.627067,0.6459218,0.4765857,5.589782,-1.376215,0.2461602,0.3407738,0.676196,0.2118348,-0.08980452,0.236929,0.4077614,-1.001995,-0.3028995,0.2771178,0.5120828
19.41348,-0.8969733,7.896235,-1.222107,1.552814,-9.410955,0.9784631,0.5173656,-40.45953,8.469879,-2.592277,0.2043944,0.8285224,0.7340677,0.8304499,-1.186932,1.163556,-2.627749,-0.5002156,0.5000276,0.5139502,0.460309,-0.1091535,-0.7309603,0.4645082,8.130291,0.6276708,0.8327608,22.09582,3.399399,-1.149687,0.3313799,0.6880057,0.250444,0.315777,3.089755,0.4041286,0.5460581,-0.3448998,0.260677,0.4419055
19.54148,-0.2492843,2.814085,-1.150917,1.490382,5.659591,0.8496564,0.9147154,6.758828,-12.31705,-2.634654,0.1611124,0.9215515,0.9067043,0.558521,-1.827733,1.099415,-2.634415,-0.5336114,0.4785595,0.3726275,-0.1647453,2.138433,-0.6775582,0.4470354,4.040328,0.6142244,0.6602342,1.614745,9.224467,-3.734645,0.3143834,0.6652241,0.3024823,0.3808855,1.138183,0.3960994,0.4739775,-0.3607962,0.243163,0.390646
19.66947,-2.45624,-5.100281,-0.9896104,1.406605,9.185177,0.7245013,0.6950651,-8.469357,3.604739,7.899732,0.05042742,0.8417645,1.035575,0.7665192,-6.520166,1.06933,-6.140399,-0.3484977,0.5848702,0.6564633,1.606802,-1.449455,-0.5948139,0.4428401,0.4761317,0.6139213,0.63284,2.65395,-2.217174,2.188711,0.3113198,0.6462613,0.367898,0.5282163,3.170976,0.426004,2.836806,-0.3126243,0.289831,0.4662808
19.79747,-1.970533,0.1701932,-0.8587971,1.62679,0.5252567,1.028289,0.714358,1.866224,-11.40207,6.915349,0.4920571,1.088287,1.500139,1.105283,1.41712,1.471909,-4.315379,0.0633214,0.9106152,1.12261,0.2222652,7.612624,-0.5891418,0.4846061,1.245469,0.6090302,0.7969249,2.329497,1.52867,1.525549,0.3556467,0.6169738,0.4398718,0.1339217,-3.03417,0.4644726,1.23041,-0.2397911,0.3382931,0.5477015
19.92547,-2.852985,24.00949,-0.6557544,1.823673,1.417253,1.120004,0.6404864,-21.23862,-16.44131,1.045298,0.5700167,1.086452,1.698638,1.358333,-3.807401,1.587866,-3.93665,0.1590783,0.9685137,1.275334,2.119159,-26.20514,-0.5559566,0.5113419,7.494806,0.6313882,0.8173246,15.60207,14.11992,2.944121,0.35225,0.6974927,0.460449,0.09265765,-0.5243021,0.4507063,1.391852,-0.2389424,0.324167,0.5673134
20.05347,-1.384524,8.439707,-0.6779934,1.855575,-13.22725,1.10394,1.456243,-28.04743,0.121476,3.161806,0.65997,1.186331,1.846,0.9310992,-3.366436,1.659384,-2.166843,0.2444226,1.014346,1.228098,0.4954765,-3.227003,-0.5847983,0.5126672,8.53223,0.6437865,0.4215676,10.83498,3.132145,0.6356453,0.3536327,0.7094942,0.4977299,0.3972737,5.293091,0.4686158,-1.313725,-0.2416941,0.3197836,0.5307228
20.18147,-1.447207,1.184762,-0.7133226,1.830952,17.75667,1.082301,0.6162292,-8.576092,11.90362,2.640619,0.6280517,1.110211,1.894848,1.382879,8.032234,1.498422,2.988886,-1.181025,0.9421123,-0.8637595,0.3750382,1.57667,-0.5906143,0.5205885,-8.548832,0.6187065,0.9615691,-0.8864983,-5.773177,-2.857448,0.3632342,0.6719049,0.5093731,0.3946065,-1.746374,0.4096447,0.002641849,0.0899667,0.2907462,-0.05223832
20.30947,-1.865347,14.24653,-0.821721,1.741655,9.675152,0.9146308,0.7722021,-4.674464,8.61442,-0.4329021,0.5360084,1.096808,1.926754,0.9827268,5.551272,1.40582,2.013717,-1.017471,0.8424057,-0.8654589,0.9949287,-0.06445002,-0.5941965,0.5055931,-4.605678,0.6041709,0.8921635,7.232367,-4.833685,6.173465,0.3413134,0.6545778,0.5298204,0.6258236,-2.346083,0.3964122,-0.6565778,-0.090176,0.2642796,-0.03941665
20.43747,-0.2546635,9.137716,-0.9493169,1.67513,18.72033,0.8741589,0.7269153,11.00905,-9.527091,4.613025,0.7061295,1.072238,2.06038,1.771155,1.353413,1.59581,3.857706,-1.063138,1.077515,-0.7503195,0.1241789,-8.987647,-0.6133463,0.484453,-16.10733,0.5951254,0.7419506,2.902196,10.88021,3.644671,0.3691946,0.7036614,0.5594742,0.2593188,0.7106745,0.4210267,-1.129496,-0.07403757,0.2951455,-0.06555345
20.56547,-1.748025,-3.503758,-0.6107022,2.090021,0.4147558,1.195654,0.7227412,14.93637,-0.7028562,7.600039,0.9540977,1.306399,2.295592,1.042349,1.740553,1.682731,2.678385,-1.378522,1.105956,-0.9700718,1.308336,2.294544,-0.5718459,0.5349863,4.10999,0.6372611,0.7269572,-7.883591,0.4180257,1.591311,0.3897649,0.6293404,0.5945075,0.70366,-10.04471,0.4225729,-0.3078977,-0.05706269,0.2934593,-0.11607
20.69347,-1.203097,-1.324641,-0.6624305,2.025973,-24.20949,1.178598,1.267066,7.184593,-5.772936,8.422668,0.9554551,1.356705,2.334147,1.287057,6.873676,1.700956,3.148736,-1.679656,1.136531,-1.362707,0.2033451,-2.977996,-0.562889,0.5400783,12.90856,0.615761,0.6726844,2.245204,5.897348,0.6051328,0.3832865,0.6395431,0.607183,0.4476315,-5.438187,0.4134731,0.3496373,-0.006325522,0.2887021,-0.2184204
20.82147,-3.092465,-7.085048,-0.6264833,2.067254,-10.28646,1.194112,0.9370415,3.384329,-3.928892,5.560568,0.9106435,1.353378,2.354641,1.575057,-11.16116,1.734294,-1.41531,-1.377623,1.018128,-0.4669391,1.039618,10.71117,-0.5638081,0.5378932,7.398993,0.6434344,0.7975202,-7.309486,-4.446388,1.289573,0.3680266,0.6386571,0.6224117,0.3191941,8.75275,0.4333932,1.531719,-0.4138712,0.2479516,-0.02691921
20.94947,0.7365444,-3.975839,-0.729261,1.942299,-0.6770827,1.066866,1.513688,0.2792434,-25.44842,4.843079,0.8033914,1.290321,2.260631,1.818363,-1.393629,1.689646,-1.420919,-0.6626208,0.9962888,1.101932,-1.075677,-2.35405,-0.5673072,0.5207012,7.765882,0.6237174,0.1929485,6.388852,13.18844,-1.687475,0.3716407,0.6981828,0.593756,0.2815543,3.969801,0.4304822,0.03987982,-0.3920501,0.2514067,0.4592755
21.07747,-1.738727,-27.11935,-0.9195161,1.776845,-7.821801,0.9385353,1.068276,1.39906,-24.62603,1.996739,0.7479617,1.302197,2.178267,1.389071,2.286813,1.672227,-1.803265,-0.3236321,1.102016,1.307816,-0.07608204,4.587817,-0.5983632,0.5027161,8.678071,0.6267303,0.3727585,-11.32377,14.59603,-0.8764354,0.3714509,0.6896476,0.5963936,0.4136638,1.423366,0.4401888,1.004232,-0.3094609,0.274395,0.4706717
21.20546,-1.605469,2.207404,-0.6374504,2.252786,19.69073,1.383206,1.463085,-0.2536671,5.013605,1.553133,1.290675,1.6183,2.45024,1.647053,4.615246,1.911779,0.3381793,0.1042609,1.165355,1.563197,0.6687546,5.974672,-0.5676535,0.56376,-15.67993,0.660597,0.4258254,1.878149,1.607658,1.651188,0.4238075,0.7588713,0.6236719,0.2852813,-1.843059,0.454848,0.04640972,-0.1638206,0.2719082,0.5478761
21.33346,-0.1320912,13.29546,-0.6389211,2.418661,-5.110525,1.580821,1.184484,13.80166,-1.249116,0.4434288,1.34045,1.505608,2.344346,1.361,-5.640498,1.857449,0.2112744,-0.03213657,1.157517,1.279648,-0.4984625,-11.35067,-0.5728779,0.5639844,2.755469,0.6787975,0.5739559,-6.670477,1.390218,-0.8056278,0.4247875,0.7683973,0.5943199,0.615777,6.940021,0.4483005,0.1099921,-0.142941,0.2885098,0.4701886
21.46146,-2.990515,1.885369,-0.3235459,2.454492,-28.23427,1.716352,1.4836,14.4095,3.70887,1.474696,1.352355,1.537338,2.29369,1.156436,-6.344847,1.787089,0.7286049,-0.1553751,1.091598,1.102148,1.056829,0.736682,-0.4555711,0.5560805,16.66626,0.6909717,0.6169622,-0.2625593,1.218009,-0.2180995,0.4347917,0.7209169,0.5750908,0.552108,5.665151,0.4428933,-0.3947895,-0.137946,0.2841168,0.4536566
21.58946,-0.8370342,7.760982,-0.506679,2.321205,-0.7192029,1.594602,0.9636279,-4.626001,5.486545,1.915423,1.200633,1.340254,2.112969,1.449402,3.293134,1.597096,-0.4343744,-0.4920241,0.9633968,0.697072,0.1471475,-1.203697,-0.4701063,0.5531083,-13.59688,0.6744303,0.8020296,2.867284,-2.641002,0.668902,0.4205516,0.7654687,0.5403588,0.3537276,-2.569948,0.410696,0.7293177,-0.2258357,0.2844936,0.3751415
21.71746,-1.737199,-4.577329,-0.6515644,2.096804,9.858933,1.435558,1.536262,22.78339,12.94983,-4.816916,0.9833018,1.2279,1.822443,0.8663746,4.200806,1.310323,-1.110092,-0.7954469,0.807686,0.4123696,0.6863888,7.43439,-0.4564341,0.5273694,-12.55634,0.6492096,0.4739209,-17.25597,-4.151887,3.633388,0.4126989,0.7049105,0.4906315,0.3422935,1.56682,0.3934221,1.367631,-0.252969,0.2942339,0.3398618
21.84546,-1.532439,9.909531,-0.6148497,2.154225,1.195189,1.519389,1.341444,3.672511,-8.899091,3.261263,1.295829,1.298754,1.889942,0.7251244,3.752121,1.546519,0.6229213,-0.5511768,1.05443,0.7617899,-0.03960392,-3.203286,-0.4503236,0.5535751,3.423242,0.6858922,0.7170655,1.087931,4.554949,-0.8847564,0.4654561,0.6645721,0.4970331,0.5347643,-5.906997,0.4225332,0.4891851,-0.2339718,0.3573877,0.3776189
21.97346,-0.7099494,5.543735,-0.5287665,2.409088,2.834621,1.636339,1.114489,7.790298,16.81649,-1.578815,1.267793,1.161104,1.697434,0.3123823,2.309758,1.405709,2.311795,-0.626317,0.988673,0.6797749,-0.2102458,-3.234173,-0.4712226,0.6263136,-4.774791,0.691865,0.6678599,-1.029445,-15.39864,1.300635,0.4846329,0.6572202,0.4756971,0.6267719,-2.340153,0.4295875,-1.473657,-0.282074,0.3780733,0.3858549
22.10146,-3.206092,0.06673107,-0.6354772,2.240818,1.306656,1.491513,0.9948564,4.941412,-19.93828,-1.255783,1.115421,1.126771,1.413099,1.141203,-1.06611,1.29317,0.1637042,-0.7216281,0.9177878,0.609413,1.349986,1.621881,-0.4980672,0.6258823,5.249147,0.6972886,0.9345441,6.390862,12.60179,1.050602,0.4799438,0.6285056,0.4112888,-0.09666827,3.639862,0.4120594,0.5532765,-0.2900521,0.3782517,0.3880641
22.22946,-1.578519,0.6558673,-0.6669633,2.089727,-0.5924721,1.378876,1.612543,8.582297,2.864646,0.2481738,0.8886336,1.030537,1.115822,0.7899624,-2.874594,1.075051,-1.20415,-0.8347276,0.7683129,0.4431589,0.2920216,-1.462937,-0.4992431,0.5998995,4.789632,0.6796569,0.3491118,-2.732424,-3.699163,-0.9687361,0.4665463,0.6078424,0.3689504,-0.02389034,-1.747713,0.4026159,0.516071,-0.3313584,0.3727267,0.3788622
22.35746,-2.650148,-26.50328,-0.8952751,1.775472,9.758319,1.122858,1.025238,-0.3098,15.2098,-2.210228,0.5781475,0.8341365,0.7668911,0.1248942,3.18163,0.8417806,-0.5392173,-1.018638,0.5877349,0.1984525,1.287673,11.54464,-0.5291969,0.5650846,1.700222,0.6688752,0.5116924,-7.977325,-7.632975,0.7933643,0.4414981,0.6312226,0.3126843,0.520358,2.963334,0.3610172,-0.3077412,-0.3788044,0.3647287,0.3676305
22.48546,-1.986864,-19.16026,-1.145374,1.502998,8.720165,0.9124868,0.3159283,5.727658,5.090569,-0.8375758,0.3733243,0.7455759,0.5177249,0.2274204,13.00287,0.7632807,-1.279548,-0.9556028,0.6785705,0.3857397,0.4165453,7.613449,-0.5666831,0.5343078,-9.091512,0.6601782,0.8712634,-1.045027,-2.845678,0.9072174,0.427482,0.6074144,0.2750621,0.432525,-12.47011,0.36702,0.2651005,-0.3578796,0.3633905,0.3524324
22.61345,-1.775455,-6.329092,-0.9386066,1.928277,10.05794,1.318377,1.273194,5.897933,-8.250983,5.713478,0.8156232,0.8931662,0.7689078,0.4961404,-6.854368,1.058155,-0.745504,-0.7824809,0.7650133,0.4776201,0.5874482,4.153738,-0.558529,0.5825396,1.393566,0.6607578,0.5337197,-1.634568,-2.029569,-2.344027,0.4630556,0.5990499,0.2881774,0.2260944,6.637349,0.3847065,0.4608912,-0.3279216,0.3668917,0.3791559
22.74146,-1.302125,-0.3858052,-0.932722,1.877468,10.23051,1.248028,0.8904285,10.07672,-11.72246,2.194363,0.6749296,0.8790646,0.6248634,0.05358738,6.112273,0.9508733,0.09084929,-0.8418995,0.7005113,0.381026,-0.2056493,4.102747,-0.5564696,0.5741637,1.862947,0.6668127,0.4843084,-6.34141,10.11525,-1.091502,0.4534717,0.602702,0.2608058,0.6478791,0.6474232,0.3774574,0.05787165,-0.3516921,0.3618965,0.3634957
22.86945,-2.283741,-4.131487,-0.9817426,1.790168,2.136086,1.158027,0.9539182,8.557904,-22.79278,1.104812,0.6156096,0.8162786,0.5109627,0.5076763,-4.926127,0.8798387,-1.059111,-0.9452944,0.6318279,0.2629149,1.090796,4.849375,-0.5645784,0.5633885,-4.962247,0.6726769,0.5678794,-2.899199,12.83661,0.9654072,0.4405839,0.5863343,0.2405041,0.1313224,-0.626248,0.3689722,-0.09918629,-0.3574504,0.3588717,0.361942
22.99745,-2.299776,12.89715,-1.091972,1.60102,-3.105616,0.9718305,1.491763,-15.75195,-9.092678,1.989882,0.3748962,0.6703128,0.2748633,0.395905,9.892219,0.6682718,-0.8678926,-1.099062,0.4935661,0.06489129,1.063205,-4.438093,-0.5749052,0.5468052,6.109247,0.6867263,0.1220025,12.86482,-2.622516,-0.9492301,0.4242859,0.5940459,0.2131321,0.1089603,-10.93309,0.3630193,0.3523948,-0.3795011,0.350965,0.3465581
23.12545,-2.170537,-14.526,-1.261182,1.389482,5.130303,0.8392113,0.5188326,4.036727,7.31433,0.5904897,0.1429682,0.4627815,0.03754237,0.01681177,3.997559,0.4649491,0.1660845,-1.302737,0.3617231,-0.1411557,0.1807439,7.281701,-0.5927669,0.5144814,-1.569862,0.6443605,0.6917071,3.616621,-3.915486,0.342829,0.4103894,0.6077248,0.180684,0.4682179,-5.669518,0.3446847,-1.225841,-0.3902788,0.3447552,0.3316386
23.25345,-2.475594,-0.2671352,-1.426084,1.2355,13.65042,0.7811341,0.3620375,16.72715,-0.6779583,-2.393469,0.2499536,0.5018588,0.07241008,0.2244248,-2.193896,0.6757807,0.03276242,-1.010292,0.5559004,0.1686703,0.4974428,-2.767718,-0.6095049,0.5064431,-13.45062,0.6351911,0.5978011,-10.48501,4.291836,0.7478771,0.4273516,0.6249591,0.190031,0.2036518,1.495701,0.3567449,-0.4581374,-0.372058,0.3565155,0.3425301
23.38145,-1.96216,6.133535,-1.10208,1.644031,2.771322,1.025471,0.509896,23.85863,-9.506288,-0.5706365,0.4047021,0.5432661,0.1933177,-0.01457121,7.668658,0.717196,-1.237558,-1.052442,0.5176592,0.1071424,0.850439,-1.541601,-0.5826771,0.5401356,-3.519809,0.6677021,0.9277802,-14.83419,12.49784,0.7949516,0.4315429,0.6322854,0.1817013,0.4598841,-6.793682,0.3612424,0.6972769,-0.3570679,0.3538117,0.3436078
23.50945,-1.678286,9.856787,-1.176838,1.50463,10.49691,0.9441348,0.8793222,4.737103,12.02392,3.94311,0.3014122,0.4727138,0.08531112,-0.005532939,9.104767,0.6581515,-0.6483335,-1.057527,0.4961217,0.08482309,0.3259262,-3.64843,-0.591725,0.530289,-0.1250891,0.6368396,0.4777128,-3.66115,-7.213557,-1.127644,0.4230324,0.6328846,0.1679092,0.5349042,-7.979851,0.3534743,0.4090677,-0.3827868,0.3481563,0.3318181
23.63745,-1.628756,9.19551,-1.22873,1.458891,-7.889709,0.8954662,0.6584342,4.069383,-12.25079,-0.5853397,0.1924056,0.4440044,-0.04127739,0.5050208,5.988765,0.5474759,0.586364,-1.195683,0.4083103,-0.04881665,0.2770423,-1.985717,-0.5840219,0.5273957,4.185054,0.6430368,0.6010037,-0.634365,12.55272,-0.004591933,0.4187908,0.599161,0.1624503,-0.2180147,-5.231603,0.3478062,-0.815788,-0.3655764,0.3446859,0.32841
23.76545,-1.846144,9.49727,-1.362977,1.322636,-9.130488,0.7513061,-0.02925529,-12.03308,10.58257,3.949334,-0.003757544,0.2561568,-0.2412693,-0.01748069,-6.416198,0.3484086,-1.575209,-1.358368,0.2716217,-0.2648952,0.5601041,-8.104897,-0.6102682,0.495891,5.971832,0.6377445,0.9424129,1.348285,-1.438772,-1.376814,0.3978244,0.6678824,0.1337965,0.2791552,1.587629,0.3308465,0.9753292,-0.3967002,0.3460873,0.3242194
23.89345,-2.60769,-2.159066,-1.557448,1.11273,-2.106549,0.5624311,0.2851406,7.072083,-0.2721946,3.416838,-0.2066723,0.184392,-0.4477565,-0.0898393,5.674335,0.150195,-1.43858,-1.491881,0.2423808,-0.2916079,0.7805114,1.136872,-0.6411195,0.4926454,-0.6330232,0.6253697,0.4461252,-4.830915,-3.681385,-2.461235,0.3900098,0.6065526,0.1130053,-0.131139,-6.403532,0.3256575,-0.2487065,-0.3996646,0.3428746,0.2958574
24.02145,-0.9484848,2.675811,-1.401541,1.332559,-5.992898,0.7414709,0.8313695,0.007762165,20.71531,1.26289,0.1999177,0.3396908,-0.1185366,-0.01216486,5.284581,0.5545014,-0.4561743,-1.09551,0.4385567,-0.003633303,0.1558465,0.4343794,-0.6233054,0.5027805,8.806653,0.648993,0.2029389,8.214751,-16.39064,0.535711,0.4190759,0.6494831,0.1431878,0.06402849,-0.6633421,0.3325791,0.2252993,-0.380606,0.3447499,0.3271427
24.14944,-4.236365,16.47138,-1.300899,1.434266,-0.6033726,0.8130093,0.243899,-8.451032,1.449018,-0.7714453,0.08883678,0.3170391,-0.2018588,0.2806544,2.09428,0.4575152,-0.9499212,-1.216122,0.3629822,-0.1137212,1.53409,-6.587976,-0.5901678,0.5188599,1.223328,0.637373,0.6000252,-2.468594,4.792927,1.144996,0.4114801,0.6270632,0.1319738,-0.08119091,-3.651625,0.3384948,0.212461,-0.3673047,0.3440001,0.3183149
24.27744,-2.141459,-9.1194,-1.337938,1.341678,6.040267,0.7737091,-0.3170025,-6.987771,5.670373,6.28086,0.06000794,0.2721356,-0.2274599,0.2523958,-0.3422357,0.4149108,0.1205392,-1.247011,0.335868,-0.1617904,-0.1626935,4.922675,-0.6103109,0.5101459,3.598463,0.626543,1.041769,-3.459449,-8.569309,-3.27362,0.4073469,0.6124889,0.12323,-0.1448745,-0.02771435,0.3375596,-0.1468731,-0.38234,0.3396746,0.3180875
24.40544,-2.61041,1.056772,-1.43903,1.233077,-2.714866,0.6464776,0.119062,-20.72182,6.918147,-3.301711,-0.09407579,0.1056479,-0.379941,-0.2186295,8.75372,0.2688542,-1.826739,-1.411068,0.215828,-0.3383913,0.5841367,3.16796,-0.6114267,0.502705,-4.25921,0.6194602,0.6601503,4.475735,-5.658862,3.052717,0.3959143,0.639736,0.1062292,0.2921972,-10.20909,0.3279831,1.900908,-0.3952937,0.3371149,0.3076096
24.53344,-2.963709,-13.8797,-1.590261,1.061522,-7.832046,0.5013962,0.3244424,13.49181,-21.00462,1.496163,-0.2892723,0.0435852,-0.5865964,-0.7224411,8.819713,0.07548308,-1.137358,-1.577289,0.0839178,-0.5631098,0.9690925,11.99766,-0.6325985,0.4846248,5.844837,0.6198694,0.4738885,-8.126733,7.847148,-0.3201073,0.3832732,0.6068789,0.09247693,0.3124492,-8.377362,0.3092559,-0.1315035,-0.4216523,0.329331,0.2992203
24.66144,-3.474692,2.609157,-1.786496,0.8768588,-16.32493,0.3223741,0.045134,-6.906242,-4.37665,1.398229,-0.3832738,0.02733566,-0.6984022,-0.3746704,0.8377178,0.06616415,1.172342,-1.442182,0.2299672,-0.2683617,1.037727,-2.137993,-0.6500917,0.4693772,10.27287,0.6205074,0.9511423,6.491877,-1.624021,-1.25074,0.3759967,0.5820162,0.09031869,0.4958106,-5.618923,0.3244857,-1.391169,-0.3856672,0.3389072,0.2915362
24.78944,-1.021595,4.487906,-1.38454,1.355809,9.780734,0.781856,0.4178488,-12.78667,11.93004,-1.070005,0.1105624,0.2768323,-0.2333203,0.03497418,-1.232616,0.4884407,0.5108792,-1.19916,0.3690842,-0.1135897,-0.2219451,4.548737,-0.6079804,0.5029407,-2.168762,0.636426,0.5575573,10.1322,-0.4458403,1.020118,0.4122042,0.5581762,0.1095675,0.2184452,0.4441281,0.3255737,-0.8756916,-0.350603,0.3330513,0.3104184
24.91744,-1.900607,-0.07853582,-1.367431,1.366859,2.930478,0.7243024,-0.02017989,-7.943187,-4.036378,-0.02123436,0.07495824,0.1866345,-0.2707863,0.05864547,-1.553259,0.4292419,-0.9640657,-1.247574,0.3357184,-0.1773689,-0.06855246,-1.762239,-0.5819771,0.512225,4.61776,0.6506515,0.6241422,-0.3087669,5.909036,0.04116355,0.4033322,0.6569278,0.1143484,0.06019282,-3.074594,0.3329956,0.007174768,-0.3634363,0.3272534,0.3004642
25.04544,-0.5515965,-3.802994,-1.380693,1.338062,1.655332,0.7515394,-0.1760428,9.761133,-15.71231,-2.524845,0.0539782,0.1985204,-0.2817,0.06998657,-4.373648,0.4001811,-0.09317754,-1.273145,0.28394,-0.2509606,-0.4225701,6.208056,-0.600792,0.4994266,-0.04401493,0.6240581,0.8494864,-9.554045,8.916924,3.357731,0.4020123,0.6444844,0.110213,-0.1346985,3.599597,0.3278798,-0.8278068,-0.3759763,0.3289005,0.3002951
25.17344,-2.529686,27.37634,-1.486163,1.205778,16.16734,0.6098862,0.2514431,-7.362782,4.388015,-0.5357845,-0.1098449,0.09254049,-0.4389187,-0.354579,8.60128,0.214037,-1.10236,-1.473835,0.1663109,-0.448477,0.5518041,-20.32606,-0.6178083,0.4841312,-9.922406,0.6273028,0.6383766,8.15959,-5.101569,0.2592055,0.3881026,0.6332055,0.1000619,-0.02030449,-4.386505,0.3391907,0.3413626,-0.3890439,0.321665,0.2896015
25.30144,-0.9517312,2.392577,-1.658685,1.018631,4.970773,0.477584,0.2192672,-41.03588,-2.943798,2.925965,-0.3094037,-0.008459624,-0.6237838,-0.4329664,4.594776,0.02581839,-0.6087925,-1.642567,0.04089311,-0.6728537,-0.3830546,-4.344764,-0.6360868,0.4691882,6.292904,0.6106605,0.2806659,22.27408,-2.3455,-1.931375,0.377347,0.6058676,0.08112761,0.1963002,-3.14264,0.3232661,-0.469775,-0.4214488,0.3152069,0.2856759
25.42944,-1.636308,7.468593,-1.822635,0.8713802,7.917383,0.4051605,0.04835177,4.04463,-13.0813,-2.296611,-0.1969465,0.01140104,-0.5173983,-0.5187729,-0.008157583,0.2883906,-1.174701,-1.28855,0.2787895,-0.2501141,0.2847941,-5.594954,-0.660155,0.4619824,-9.131466,0.6074052,0.5072013,-1.688885,7.977243,1.158731,0.3931647,0.6047354,0.08902648,0.5017752,-2.965244,0.3194432,0.299127,-0.390737,0.3316923,0.2985992
25.55744,-1.601126,4.046606,-1.385203,1.335437,-3.372808,0.767525,0.02809251,3.322112,0.01753093,-8.984304,0.09736788,0.1843005,-0.237077,0.3605198,-3.232373,0.4647785,0.41097,-1.234586,0.3146443,-0.209461,0.2735579,-0.7611649,-0.6105072,0.5061347,2.064157,0.6397677,0.6824704,-5.169912,-7.995046,2.600887,0.4135417,0.6294436,0.1148316,-0.1250068,3.774076,0.348224,-1.310553,-0.3527217,0.3334385,0.307613
25.68543,-2.140535,-10.02924,-1.397201,1.271626,-3.343378,0.7437053,0.2733292,-25.60702,3.132735,5.448406,0.06112757,0.1394753,-0.2945127,-0.158431,1.460552,0.410617,-0.67392,-1.244415,0.299241,-0.2412442,0.3089188,0.9310485,-0.6145801,0.503571,2.358652,0.628838,0.7905551,16.83561,-2.296414,-1.513834,0.402967,0.6499257,0.1119615,0.2466068,3.682977,0.3443975,-0.2823825,-0.3821099,0.3318086,0.3009433
25.81343,-0.8319207,7.363856,-1.418299,1.249714,-15.63528,0.7009392,-0.05411671,-4.190276,14.81636,3.096578,-0.002457587,0.154963,-0.3263032,-0.5399137,-8.197961,0.3349431,-1.513556,-1.375107,0.2233099,-0.3575184,-0.4009222,2.561032,-0.6102486,0.5021803,10.30356,0.6264697,0.6068674,-1.125436,-6.752082,-0.8744677,0.4029019,0.6335774,0.1130536,0.5296773,11.06266,0.3433095,0.8432012,-0.3785409,0.3300869,0.2944488
25.94143,-1.448355,-1.017733,-1.577851,1.105318,-7.42891,0.5411509,0.07196055,-4.966682,6.152165,-1.069125,-0.1723039,-0.02194192,-0.4672976,-0.6550714,-1.938789,0.1535046,0.1712936,-1.588804,0.09189953,-0.5830327,-0.04373281,-2.418921,-0.6202904,0.4844269,4.168479,0.6204136,0.3965025,5.774849,-0.4861182,3.286874,0.3892632,0.6553331,0.09004689,0.3794562,0.3586392,0.3302202,-1.125919,-0.3768793,0.3235845,0.2905478
26.06943,-3.449164,-0.6330402,-1.76774,0.9288841,-2.896884,0.3638452,0.5932214,-0.3592404,7.575858,-1.983731,-0.3451668,-0.03797065,-0.6568959,-0.544986,7.105932,-0.04304388,-0.2441932,-1.778242,-0.01842138,-0.8009877,1.976877,-4.510201,-0.6416644,0.4701898,9.339737,0.6144145,0.3911153,-6.744641,2.073207,1.198516,0.3795859,0.5796731,0.08303841,-0.06109271,-0.8093099,0.3153915,-1.282145,-0.401942,0.316456,0.2772213
26.19743,-2.089653,-2.725371,-1.883572,0.8325798,-11.15678,0.360028,0.2010862,3.575469,9.779319,6.910283,-0.1700535,0.02057306,-0.5174566,-0.4998215,10.67547,0.2463264,0.1774327,-1.419946,0.2357901,-0.3507835,-0.3156631,0.5044723,-0.6561902,0.4602955,9.678892,0.6262335,0.6305137,4.230789,-2.29209,-0.7882581,0.3924834,0.5850925,0.09806154,0.4133275,-10.39387,0.3265111,0.0285276,-0.361087,0.3300764,0.2842163
26.32543,-2.478168,10.76983,-1.475395,1.264132,-8.495117,0.7025191,0.4333468,11.84755,6.271366,-1.951247,0.04548944,0.1332222,-0.3007135,0.04552868,-2.843626,0.3698767,0.6097243,-1.410418,0.2426054,-0.3678979,0.4235757,-2.292075,-0.623866,0.4985624,2.689816,0.6233847,0.5613255,-12.1839,-2.753623,1.546704,0.4065118,0.6306181,0.1185482,-0.01813356,0.2623808,0.3332861,-0.7521802,-0.3483817,0.3288454,0.2969515
26.45343,-2.116279,9.92422,-1.504189,1.191334,17.39155,0.6809914,0.3638435,-8.064134,1.567112,-1.848627,0.002740522,0.108063,-0.3002973,0.02157259,-1.775619,0.3623829,-0.7047794,-1.385498,0.2419576,-0.3741713,-0.05619799,-3.602328,-0.6358228,0.4951335,-10.87484,0.6117786,0.7042083,5.252748,1.470714,1.949993,0.403663,0.6281251,0.0996113,-0.05201453,0.5675104,0.3340471,0.6630657,-0.3685603,0.3301291,0.2955348
26.58143,-1.343736,0.1574668,-1.518958,1.186877,11.73295,0.6313411,-0.2031296,2.379586,-4.14924,2.901431,-0.05266309,0.2045192,-0.354712,-0.4128078,7.109861,0.2986545,0.7367412,-1.477925,0.1670648,-0.4777665,0.241741,-3.450195,-0.6167568,0.4855787,-9.830094,0.6322671,0.8680888,-2.100049,4.790991,0.4553664,0.4027927,0.5791288,0.1057369,0.4706982,-4.478387,0.3258481,-0.540395,-0.3785236,0.3290356,0.2893833
26.70943,-2.175279,-5.336414,-1.643789,1.034498,17.48974,0.5217119,-0.2862466,5.210191,-1.435226,0.09866295,-0.1963084,0.0595551,-0.5050581,-0.4306376,-1.423348,0.1192063,-0.5647323,-1.631018,0.06131674,-0.6558734,1.097849,-1.61573,-0.6409045,0.4870445,-7.195048,0.6076027,0.8440382,-3.567692,-0.1454909,0.192415,0.3848392,0.6490249,0.0936837,0.0667583,3.555414,0.3197403,0.2344335,-0.407052,0.3215656,0.2833209
26.83743,-2.506141,12.23822,-1.799887,0.8972603,5.090455,0.3833992,-0.4891655,11.41042,9.076713,-1.268211,-0.3526228,-0.02925335,-0.6677073,-0.313706,1.552518,-0.03897952,-1.086944,-1.769185,0.01220411,-0.7465174,1.257626,-2.843667,-0.6532705,0.4624353,0.9530597,0.6149496,0.8277254,-13.46101,-3.060955,0.3047406,0.3770147,0.6001616,0.08020397,0.0390805,-1.74882,0.3107774,0.895717,-0.4150717,0.3168312,0.269996
26.96543,-1.394869,16.69107,-1.695842,1.016297,5.855252,0.6082713,0.4642098,12.90939,8.617434,-1.419354,-0.04162313,0.0945608,-0.3864879,-0.6462525,-17.14375,0.3581694,0.9780337,-1.44324,0.2055264,-0.4109601,-0.700151,-2.714033,-0.6344026,0.4767859,-4.891191,0.6144075,0.4004673,0.03003806,0.7121462,1.418403,0.4067861,0.6066589,0.1041119,0.5244517,11.66349,0.3216417,-0.6685863,-0.3708093,0.3328675,0.2961926
27.09343,-1.611302,-7.759123,-1.551224,1.157969,-6.350682,0.6012637,0.7067308,-0.747053,-18.67227,-4.349737,-0.1026579,0.1399411,-0.4239601,-0.03749528,-5.622519,0.2798767,0.1816138,-1.529794,0.1568873,-0.4980257,0.2351159,3.54704,-0.62098,0.4903394,0.9353132,0.6450625,0.6385064,5.903561,15.17667,2.414487,0.4029902,0.6057667,0.1038959,0.01881091,6.103892,0.3345326,-1.448076,-0.373255,0.3281488,0.2890165
27.22143,-1.7538,-4.809276,-1.577067,1.102566,-1.301159,0.6187819,0.515246,-5.651572,-5.016274,6.924988,-0.1011654,0.1517063,-0.4340796,-0.353389,3.878931,0.3051767,0.1889221,-1.484566,0.1457224,-0.5244978,0.05479791,7.383794,-0.6340579,0.4825507,4.618908,0.6263647,0.4242301,-6.702687,-3.825076,-2.065079,0.3980742,0.6118715,0.1082751,0.4839096,-2.091123,0.3293796,-1.34865,-0.4002644,0.3245186,0.29563
27.34942,-1.121881,-6.248591,-1.639511,1.006407,-0.1050891,0.5589121,-0.05615896,5.164046,11.48503,-5.178308,-0.2122305,0.08187867,-0.5333849,-0.3542796,2.593315,0.1748332,0.1299565,-1.641485,0.05229963,-0.6660357,-0.3748322,5.382038,-0.626738,0.4842524,-1.133348,0.6290025,0.9023926,6.090969,-7.944996,3.222799,0.3882832,0.6118436,0.09438485,0.3801987,-1.214013,0.3333384,-1.074602,-0.399896,0.3200826,0.2861976
27.47742,-2.713343,13.30457,-1.781502,0.8863519,1.959089,0.4452529,0.2574918,1.211145,8.056183,0.6681244,-0.3611186,-0.02745613,-0.6888891,-0.2898532,11.55228,0.00209746,-0.9178957,-1.822053,-0.06519811,-0.8609545,0.6060274,-2.992387,-0.6475655,0.4666843,0.01235603,0.6372257,0.6228445,-4.358106,-13.40902,-0.6959128,0.3744404,0.6071719,0.07753447,-0.07696459,-13.18634,0.3219613,-1.396746,-0.411692,0.3173241,0.2796336
27.60542,-3.851756,7.062367,-1.918164,0.7787587,-1.327694,0.3928659,-0.1820791,-0.3510704,-1.815543,2.948311,-0.2626804,0.00448841,-0.6011051,-0.6041664,-8.674799,0.2645346,1.797307,-1.469554,0.1652362,-0.4794126,0.6212039,4.060288,-0.6657702,0.4457691,4.1516,0.6242823,0.7680172,-1.059455,0.5795794,0.3988836,0.3858585,0.6614376,0.08224637,0.2894271,9.00909,0.3181027,-3.256005,-0.3988203,0.3257324,0.2864411
27.73342,-2.196994,5.160355,-1.507584,1.213851,4.990989,0.7544401,0.3365865,3.9261,11.37332,4.727638,-0.002262627,0.2631769,-0.3461478,-0.2524139,4.942981,0.4406663,-0.6531449,-1.401851,0.1924756,-0.465412,1.529652,0.2020763,-0.6234229,0.491561,-3.313705,0.6532659,0.4233104,4.444056,-6.05301,-0.4614192,0.4072806,0.6079735,0.1026284,0.3464435,-2.161942,0.3381637,-0.6623632,-0.3886317,0.3254377,0.2982286
27.86142,-1.74557,0.8826926,-1.5647,1.127247,8.291721,0.6909914,0.2008901,-8.334792,-15.04376,-3.646331,-0.05876714,0.2155119,-0.3904676,-0.1072561,-2.365671,0.4122951,0.6939812,-1.424742,0.1842328,-0.4813541,0.3733773,6.027834,-0.6193969,0.4938115,-10.88719,0.6601598,0.8631779,6.11121,14.64932,2.91002,0.4011752,0.6101059,0.1023849,0.2308429,1.639032,0.3412197,-1.679261,-0.3919297,0.3266284,0.2922714
27.98942,-2.787303,-0.535417,-1.580954,1.14274,-4.066394,0.716776,0.4820001,-3.845041,10.01399,-0.4147005,-0.09651151,0.1535281,-0.4271003,-0.0341882,-4.787261,0.3402032,-2.679223,-1.537209,0.1301323,-0.567149,1.068267,4.402863,-0.6127911,0.4892091,1.35,0.6483124,0.6555017,-6.559912,-6.445361,0.7179746,0.3980507,0.6613843,0.0952616,0.2958151,6.221171,0.334631,0.9873202,-0.3743787,0.3261115,0.2939886
28.11742,-1.483689,-4.335015,-1.673237,1.028358,4.84762,0.6000496,0.8048145,-17.19691,-8.569582,-0.8764813,-0.2500179,0.1580817,-0.5739554,0.2561184,-1.695468,0.1613287,1.033092,-1.654811,0.02076587,-0.7438504,0.7856358,3.009284,-0.6406195,0.4718024,-2.654386,0.6437081,0.004139719,13.34122,-7.020635,0.2194493,0.3927353,0.604624,0.08408315,-0.2165098,-4.445192,0.3325966,-1.340274,-0.4123062,0.3259207,0.291204
28.24542,-2.189664,15.65177,-1.839098,0.8535055,9.306779,0.4493278,-0.1558699,-5.564217,-2.529131,3.361458,-0.3923276,-0.002456747,-0.7430062,-0.4500946,-4.942866,0.01588767,-0.0009152855,-1.714114,0.04044558,-0.6811644,0.1976351,-5.927382,-0.6501463,0.4697525,-7.028225,0.6344642,0.9726046,6.506107,5.761265,-0.1170176,0.3792417,0.6193776,0.08039528,0.05170585,1.81269,0.3308048,-0.4564683,-0.4108829,0.3295012,0.2760201
28.37342,-2.715405,3.590178,-1.58457,1.159106,4.039979,0.7973316,0.06649654,-34.92838,12.38033,4.34073,0.08485147,0.2280578,-0.3252714,0.2992829,-5.489776,0.5052502,0.05740314,-1.321593,0.2823391,-0.3362749,0.08842289,-2.567786,-0.6239145,0.4990636,-2.161867,0.6315753,0.7582012,6.439351,-6.081191,-1.173787,0.4188713,0.6551967,0.109438,-0.2073426,0.8347208,0.3525271,-0.6323322,-0.3771472,0.335431,0.2988994
28.50142,-0.9335544,-13.723,-1.418096,1.318006,18.15705,0.86312,0.4036268,-14.50203,-2.969972,0.6288097,0.0847502,0.2687629,-0.3008821,0.2996317,-5.710858,0.5216566,-0.8257914,-1.339922,0.2681168,-0.346524,-0.1598858,2.463336,-0.6206973,0.5139273,-8.983555,0.6572925,0.6720104,6.621346,0.08608828,0.506958,0.4143143,0.658355,0.1106909,0.1225479,-1.019868,0.3521294,0.112263,-0.3633544,0.3362434,0.2979109
28.62942,-2.093663,6.038994,-1.428146,1.293112,13.2316,0.8812382,0.5574312,4.234723,9.900448,1.271115,0.09921765,0.316591,-0.2933953,0.3647141,-0.511265,0.5241471,-0.2632756,-1.307446,0.2614602,-0.3549519,0.8932375,6.378239,-0.6213927,0.5110779,-10.27675,0.6601872,0.7143313,-4.129917,-9.484426,1.168774,0.4108095,0.6826356,0.113092,0.002560715,4.805412,0.3607391,-0.85662,-0.3766146,0.3340576,0.2990383
28.75742,-3.416735,7.453748,-1.4679,1.220465,19.27065,0.8332704,1.12577,7.1876,-15.56273,3.985446,-0.02852448,0.367766,-0.3907594,-0.3306793,-4.658322,0.4019278,-0.7574414,-1.407919,0.1696219,-0.4762212,0.9361227,-1.33133,-0.6187261,0.5036912,-9.28581,0.644866,0.3007693,-2.26134,8.41449,-0.4414647,0.4052533,0.5893254,0.1090201,0.5778657,2.676827,0.357855,-0.3773183,-0.4009067,0.3306273,0.2928263
28.88541,-1.937743,-19.09345,-1.586334,1.05816,3.527409,0.6767323,0.4868701,-0.4839512,-9.369483,3.068895,-0.1815689,0.2171209,-0.5303046,-0.10159,3.813008,0.2498598,-0.6230078,-1.585153,0.07142785,-0.6422594,1.117038,14.16167,-0.6389186,0.4944429,-3.221607,0.649676,0.3967664,2.370555,5.407912,-0.9633929,0.3944681,0.6293784,0.1009062,0.1249186,-1.241205,0.3455417,0.3252157,-0.3960848,0.3267695,0.2898338
29.01341,-1.803995,-6.743986,-1.665721,0.9916789,-3.827685,0.6741531,0.6883994,19.21929,-15.54054,-1.658431,0.05901861,0.2992922,-0.3519787,0.4808662,-5.841197,0.5633916,-0.3332153,-1.273571,0.3277283,-0.2545282,0.1823209,6.469522,-0.6491803,0.4897029,5.319797,0.6402687,0.4306701,-7.970767,2.615973,2.332541,0.4105263,0.6345739,0.1114067,0.008462299,7.190968,0.3438606,0.3267472,-0.3405427,0.3346199,0.2904738
29.14141,-1.692412,-15.33793,-1.331285,1.456939,-8.734872,0.9757696,0.4308942,-0.755124,4.069133,1.285533,0.2840382,0.4549726,-0.1494836,0.3946702,7.311017,0.6619985,-0.385264,-1.219539,0.3511778,-0.2266367,0.725107,8.81232,-0.6259227,0.5314561,10.2308,0.6769232,0.876366,1.031352,6.558717,-0.6349909,0.4195523,0.6054365,0.130229,0.2467283,-10.12637,0.3682221,0.3023141,-0.3316207,0.3378352,0.3017813
29.26941,-2.067999,-1.248005,-1.339662,1.422227,5.694949,1.003418,0.7751038,11.73221,-1.905645,0.00954237,0.261807,0.5245949,-0.1412468,0.4186799,1.734786,0.6731799,-0.4862916,-1.177309,0.3665747,-0.2026098,0.9149864,4.875503,-0.6115167,0.5313374,-0.7442719,0.6399816,0.791232,-7.024485,7.767666,1.456757,0.4213881,0.5742335,0.1268229,0.09530105,-1.071426,0.3657582,0.7683767,-0.3474705,0.3351743,0.2948204
29.39741,-2.936254,10.49517,-1.349215,1.441908,6.181824,0.9804076,0.2979462,16.32289,-12.64834,2.181363,0.2045573,0.5300965,-0.1553403,0.08760503,-1.350447,0.6063468,-0.8188739,-1.271997,0.3107058,-0.2895887,1.634644,-0.3780991,-0.6046488,0.5240912,1.897969,0.6566225,1.054039,-14.36532,3.822815,-0.4411854,0.4182084,0.5877971,0.117241,0.5260138,1.251691,0.354488,0.6511285,-0.3546172,0.3336781,0.2952869
29.52541,-2.914269,-14.47701,-1.412072,1.306383,-2.527089,0.8794226,1.012258,2.853204,-8.223127,5.259664,0.06667126,0.3366998,-0.2854622,0.216694,5.429753,0.4871081,0.7643522,-1.395408,0.2210471,-0.4257461,1.406797,2.602648,-0.6264718,0.5122986,2.611365,0.6422292,0.5393929,3.431409,7.407795,-0.9003034,0.4076248,0.6433665,0.1178982,0.247308,-4.632377,0.3509387,-0.3033296,-0.372716,0.3310316,0.291333
29.65341,-2.589758,-5.607826,-1.542032,1.151942,3.0799,0.8025292,0.6711025,-22.07163,2.965484,2.251199,-0.04794259,0.3311239,-0.4062778,0.1216665,2.155278,0.4361218,0.4417309,-1.333491,0.2816728,-0.2959596,0.7723528,9.681709,-0.6372402,0.5081527,1.894654,0.614888,0.4985139,15.02399,3.262134,0.2600808,0.4062504,0.6289346,0.122373,0.05126193,-1.113599,0.3544454,-0.201127,-0.3742966,0.3384289,0.2850005
29.78141,-2.329579,14.81931,-1.298639,1.510437,-5.264111,1.118937,0.9526753,14.60053,6.655175,-0.04904997,0.383565,0.5719226,-0.04375359,0.2031417,-5.987156,0.7835863,-0.3226586,-1.084151,0.4401869,-0.0844049,0.8352479,-20.37742,-0.6169372,0.5299897,2.016572,0.6571605,0.6340296,-13.14621,-4.763894,0.1340192,0.4325637,0.6372196,0.1431574,0.3771111,3.706765,0.3677876,-1.026618,-0.3524871,0.3412527,0.3036466
29.90941,-2.680566,-9.851165,-1.221635,1.55675,-1.199627,1.127031,0.9872045,-1.02321,-8.418299,-0.2693157,0.3508586,0.5517731,-0.06267694,0.6753014,-4.201321,0.7738245,-0.5657309,-1.082917,0.430373,-0.09449501,1.522633,5.797786,-0.6121686,0.5364981,6.424687,0.6691383,0.627495,2.579369,6.413915,2.620088,0.4271187,0.6417345,0.1407609,-0.02404264,6.508405,0.37329,0.05861158,-0.3651223,0.3432938,0.3052848
30.03741,-2.640326,-11.58934,-1.214693,1.555264,15.73528,1.144481,0.9892156,-3.327723,-1.106086,-1.549004,0.3499402,0.6235642,-0.04470596,0.2372983,4.011443,0.7845047,1.566983,-1.094821,0.4094113,-0.112824,1.065361,7.55718,-0.6174018,0.5397483,-7.358524,0.6803062,0.5123384,-1.763806,1.956227,1.302331,0.4326042,0.604269,0.1484409,0.2332317,4.30844,0.3677375,-2.250627,-0.3697548,0.3416375,0.3076821
30.16541,0.4223217,-4.410129,-1.280805,1.464897,9.153156,1.070841,0.4575866,-0.2165292,-11.61843,0.3752601,0.2314557,0.5843156,-0.1317829,0.2440875,-3.354233,0.6839505,0.4824484,-1.195964,0.3362743,-0.2252786,-0.6456667,2.205639,-0.6210337,0.5249842,-5.34757,0.6606258,0.8120947,5.384735,-0.5155023,0.1750664,0.4220563,0.5845556,0.13943,0.3948201,-1.375862,0.3620645,-0.6634988,-0.3796998,0.3380774,0.2988403
30.29341,-1.232263,-5.016764,-1.393691,1.309555,-0.5086582,0.939309,0.6270348,-9.795783,17.09352,-0.846008,0.08751964,0.4662384,-0.2599953,-0.25588,3.283668,0.5407919,-1.771535,-1.317394,0.2538069,-0.3490854,0.3379823,5.89894,-0.6287157,0.5189601,-3.907933,0.6653473,0.8166687,4.022082,-16.36535,2.323746,0.4129137,0.6100776,0.128089,0.7651215,-5.240242,0.364284,1.124054,-0.3996988,0.3338729,0.2949223
30.4214,-2.826034,-3.770001,-1.462911,1.237163,10.64997,0.9340285,0.7672825,-16.6321,-10.57102,-3.137293,0.3048087,0.4723411,-0.1205345,0.5242786,1.018789,0.7964076,0.09228957,-1.042087,0.4718979,-0.02119387,0.3613618,1.255275,-0.6558069,0.5071704,2.611211,0.6637149,0.4667208,3.857935,10.55454,2.245191,0.4270196,0.6257877,0.1458887,0.07147543,-2.557319,0.3608695,0.1553959,-0.355838,0.3473339,0.3035114
30.5494,-1.518711,13.48065,-1.173231,1.657689,-2.851738,1.240747,0.860421,7.702518,21.27335,-1.314625,0.4858719,0.6454539,0.05372534,0.08137728,3.407603,0.8756092,-0.6826316,-1.003262,0.4786773,-0.002823492,0.3791501,-20.56522,-0.6185852,0.5477049,8.756697,0.6883377,0.6073773,-2.436715,-22.4134,2.093244,0.4387651,0.6367527,0.1577193,0.8581594,-3.107964,0.3778642,0.6581918,-0.3681939,0.3474413,0.313346
30.6774,-0.8791436,11.82179,-1.191097,1.590268,11.59848,1.233017,0.6433339,4.265182,-2.332265,-5.976694,0.4537442,0.5760168,0.0474593,0.9103245,0.8650983,0.8863783,0.6279943,-1.007682,0.4906435,0.005926015,0.4368145,-7.149238,-0.6167563,0.5545757,-16.20668,0.6615725,1.072526,-2.652284,2.540969,4.238923,0.4335618,0.6665574,0.1500238,-0.09782213,-1.031318,0.3730852,0.02551615,-0.3525712,0.3445354,0.3134169
30.8054,-2.573809,1.914796,-1.215021,1.585986,-1.667442,1.174692,0.783012,9.338481,-1.927273,1.231966,0.3851088,0.6453273,-0.006227365,-0.00217368,7.800382,0.7818411,0.02865251,-1.067106,0.424975,-0.08362919,1.417727,-6.512679,-0.6044782,0.5417522,3.365838,0.690045,0.5823758,1.431931,5.418708,-0.1073531,0.425866,0.6114676,0.1422721,0.3810157,-7.640887,0.3800447,-0.5499202,-0.3733821,0.3398713,0.3077911
30.9334,-2.266782,-15.64385,-1.31531,1.421528,4.493708,1.07031,0.6993852,-14.64369,20.91308,2.675757,0.2175141,0.5478748,-0.1385193,0.3509214,3.182348,0.6511397,1.064516,-1.204149,0.338544,-0.2368159,0.5181051,12.63381,-0.625718,0.5324363,-3.653695,0.6660905,0.5387859,9.969748,-14.93137,0.360305,0.4168482,0.5995942,0.1374797,0.4152828,-4.57238,0.3596476,-2.738389,-0.3930258,0.3317435,0.3024481
31.0614,-2.983338,18.07127,-1.456205,1.275149,-23.71833,0.919354,0.6585283,2.041179,-2.561325,-3.417615,0.06476448,0.431947,-0.2775793,0.187188,-14.42812,0.5190609,0.4098132,-1.351971,0.2426517,-0.369332,1.750124,-12.51628,-0.63193,0.5149356,11.63404,0.6605801,0.7644259,-0.5860394,-2.371654,1.864921,0.4065666,0.6299714,0.1311028,0.121372,9.435148,0.3550602,-0.739073,-0.394829,0.3311357,0.2921735
31.1894,-2.241669,-8.178984,-1.491536,1.20399,-9.440394,0.9521284,0.367443,-15.21496,4.924474,2.235517,0.3292468,0.5330293,-0.1004266,0.3295771,2.105797,0.7918335,-0.6058126,-1.03513,0.5049857,0.02767406,1.190631,4.284534,-0.6604618,0.508875,6.835059,0.6617783,0.8195194,3.576298,5.955396,-0.5178044,0.4313063,0.5972484,0.1505118,0.1128205,-3.709239,0.3717387,-0.4833125,-0.3564603,0.3475587,0.3020898
31.3174,-0.5414793,1.835808,-1.163866,1.712157,-1.848537,1.300674,0.8912205,2.018379,2.79787,-1.595742,0.5730563,0.6415184,0.1392409,0.4245948,5.512652,0.9524612,-0.04650994,-0.9063654,0.5548617,0.09390321,-0.1217246,1.277117,-0.6090348,0.5569077,-0.3385264,0.672201,0.7829167,1.55482,5.382216,0.9024721,0.4432065,0.6295037,0.1598693,0.3709199,-7.840008,0.378682,-0.1740502,-0.3658167,0.3507386,0.3175426
31.4454,-0.1733256,-2.512064,-1.124086,1.702127,-21.63205,1.271485,0.7733101,-15.93162,-0.09719162,-0.8792816,0.5568452,0.7410856,0.1417668,0.6252809,-0.3631277,0.9284595,-0.6312556,-0.9164042,0.5604008,0.1066212,-0.266394,0.08843856,-0.6162984,0.5507845,3.352254,0.6788203,0.8239986,9.723732,-1.232349,2.069828,0.4452326,0.5793214,0.1479177,0.323338,-0.9640858,0.3900852,0.09674741,-0.3621186,0.3513515,0.3107091
31.5734,-2.433967,-6.188645,-1.15738,1.671863,-17.61809,1.265204,0.7473224,-0.4929222,11.43489,-4.179499,0.48833,0.6371225,0.09349812,0.3942682,-6.594242,0.8472311,-0.03086809,-0.994307,0.4961787,0.0133173,1.153603,4.165661,-0.5934856,0.5501226,13.16796,0.6678842,0.639064,-4.203089,3.136258,2.547291,0.4290023,0.6084855,0.152226,0.4284366,4.674556,0.3889417,-0.3853316,-0.3738129,0.3474912,0.3123267
31.7014,-1.20668,-11.13514,-1.230827,1.505216,-3.017801,1.117977,0.4250769,2.851627,2.008883,-0.9028702,0.3118507,0.486029,-0.03670893,0.03587478,-4.080898,0.7267427,0.0139138,-1.124306,0.4062802,-0.1373607,0.2734605,10.95923,-0.6175599,0.531921,2.29348,0.6618123,0.5686393,-0.8023767,0.7209908,-0.9462692,0.4174325,0.6408222,0.1387795,0.560927,7.485488,0.3686413,-0.1282898,-0.3899948,0.3347279,0.3063952
31.8294,-2.214582,3.811748,-1.351301,1.363714,-23.28999,0.9191146,0.5306143,-34.53683,14.1577,-0.2001473,0.1663052,0.3850331,-0.1381371,-0.002606659,-0.8327328,0.5481502,0.6675634,-1.350482,0.2776136,-0.3779102,1.472548,-1.709706,-0.6373855,0.5147287,5.896089,0.6637232,0.7454612,17.97895,-13.0679,-0.03837708,0.4060101,0.6551675,0.1316148,0.3344254,3.917593,0.3411204,0.3923875,-0.3524901,0.3151046,0.2873742
31.9574,-4.166077,-0.2149314,-1.556312,1.210813,3.604854,0.7744998,0.5595779,4.738813,-22.88164,-4.848981,0.185343,0.3216691,-0.1564446,0.4025137,1.369062,0.6453061,0.04900584,-1.125791,0.4650755,-0.09381784,2.274226,5.642374,-0.6536376,0.5046296,-3.776019,0.6291232,0.5698739,-1.909482,15.02539,2.574032,0.4042412,0.639697,0.1425009,-0.01724081,-0.7214354,0.3425334,0.04953912,-0.3506283,0.3280992,0.2869922
32.08539,0.2084813,0.8574312,-1.237903,1.715107,-4.353951,1.191007,0.2797371,-2.525098,0.4407153,1.633979,0.5760619,0.5230356,0.1898787,0.1791861,-4.520506,0.8768376,-0.037604,-1.019822,0.550588,0.01279431,-0.7075925,-4.707633,-0.6135907,0.548806,2.697958,0.6329165,0.7606242,1.568824,3.66641,-0.8009959,0.4339601,0.6291502,0.1667186,0.3260672,4.853057,0.3461824,0.4506916,-0.3120836,0.3255015,0.2940266
32.21339,-2.34753,13.97166,-1.223054,1.72526,8.483968,1.094273,0.3462725,-10.45771,16.77634,0.1959531,0.5614887,0.5557707,0.1924044,0.1559739,5.044093,0.8193709,-1.547081,-1.084613,0.531188,-0.04225349,1.029999,-16.13152,-0.637477,0.5567006,-3.808552,0.651956,0.8286228,7.083729,-10.25701,1.110237,0.4305873,0.6046978,0.1663163,0.4489185,-6.37419,0.357888,1.715958,-0.2972546,0.3224676,0.294273
32.34139,-3.143384,-3.03068,-1.268518,1.696571,10.10805,1.061927,0.3461715,10.20994,1.109857,1.625011,0.5095435,0.5138691,0.1838095,0.3409944,3.227089,0.7425569,1.658613,-1.179103,0.4681706,-0.1508731,1.172904,4.476585,-0.6438485,0.5518866,-1.381416,0.6322614,0.6265288,-7.708264,1.012189,1.087251,0.4307522,0.6179283,0.1719141,0.1850212,-10.22792,0.3475222,-0.37983,-0.3012893,0.3159522,0.2846154
32.46939,-2.784478,-1.597667,-1.430809,1.529353,4.492757,0.9349024,0.4481113,-4.933354,1.398384,5.786809,0.3455541,0.3844317,0.05356489,0.3684585,-15.08318,0.5630114,-0.1577669,-1.337866,0.3616546,-0.354782,1.458135,-5.968892,-0.6564237,0.544055,-2.209627,0.6008375,0.5023915,9.724236,2.448207,-0.7887217,0.4133599,0.6394744,0.1617981,0.1627929,5.806295,0.3240706,1.228277,-0.3170745,0.3076174,0.2787767
32.59739,-1.67413,5.216898,-1.596485,1.35838,-0.01422507,0.767252,-0.168293,0.4004086,11.90169,7.559144,0.1956211,0.2804255,-0.06854121,-0.106243,-4.231382,0.4165013,1.205366,-1.528715,0.2601435,-0.547507,1.051786,3.13398,-0.6958894,0.5265881,5.483024,0.5708773,0.9464961,-2.13779,-7.082173,-0.8103552,0.4017528,0.6065153,0.1542181,0.02641577,2.168905,0.3098374,-0.6744271,-0.3155195,0.2991741,0.2688401
32.72539,-1.696744,12.78945,-1.770731,1.213074,7.419059,0.5596733,0.38504,-2.949252,-11.40672,0.1635521,0.06839428,0.1263888,-0.1749042,-0.2206831,-3.409026,0.2921617,1.964765,-1.596309,0.2937292,-0.485257,0.2932708,-11.81898,-0.7068259,0.5092574,-5.037207,0.5856797,0.344648,-2.84164,5.856997,3.37635,0.3927257,0.6523759,0.1563416,0.1333535,4.843866,0.2988944,-0.9020784,-0.3008156,0.3054255,0.2565478
32.85339,-0.9182207,1.573327,-1.561082,1.555103,17.54026,0.8878019,0.4831474,1.485813,-15.76644,6.692056,0.5187139,0.3630767,0.1971402,0.1657895,-1.797015,0.6724237,2.394056,-1.240539,0.4929621,-0.1844807,-0.5724651,-5.125224,-0.6977723,0.5390035,-12.24367,0.589396,0.4492035,-2.446801,10.74375,-0.8141737,0.4336883,0.6191469,0.1807688,-0.1554174,2.123093,0.3288761,-1.112535,-0.283026,0.3072287,0.2811991
32.98139,-1.731922,1.733944,-1.416477,1.649484,8.64564,0.9399342,-0.5992199,19.62102,24.98785,0.9610047,0.498372,0.3869687,0.2191812,-0.2376551,8.674546,0.6302307,0.710896,-1.301968,0.4682597,-0.2228724,0.8250661,1.178946,-0.6981386,0.5531102,-4.023789,0.5889223,1.368702,-17.56755,-15.37115,0.3853427,0.4328071,0.6393657,0.1914078,0.3240709,-2.894855,0.3274451,0.5023455,-0.2791605,0.3028159,0.2785282
33.10939,-2.095227,8.461076,-1.488668,1.593764,-15.82747,0.8645043,0.07133049,8.110435,2.203001,4.031728,0.5125287,0.3488932,0.2161854,-0.2123921,-9.170078,0.5925555,0.4702652,-1.343604,0.4308289,-0.2645558,0.5768358,-3.925292,-0.7066414,0.5515918,6.925116,0.5981833,0.7552858,-7.358755,-3.079705,1.020776,0.4223365,0.6197296,0.1971955,0.1577403,6.556222,0.3227144,0.6269248,-0.2767251,0.3035451,0.2763831
33.23738,-1.530866,18.49505,-1.562517,1.487259,13.08021,0.8011628,0.1701168,-5.535993,6.039111,6.824906,0.3620634,0.2652961,0.0912694,-0.4866765,5.709976,0.4665906,1.86999,-1.440246,0.3331267,-0.4162834,0.4228269,-11.36774,-0.7215817,0.541304,-8.944929,0.564568,0.4949338,0.7775738,4.212561,-1.826415,0.4150907,0.6036475,0.1900588,0.6553534,-5.13581,0.3078602,-0.6190286,-0.318529,0.3021001,0.2767284
33.36539,-2.58298,-5.194656,-1.663508,1.316777,0.4730722,0.6510299,-0.1398372,-1.959742,-0.6273913,0.1585723,0.2034546,0.1998181,-0.06981837,-0.5096788,-0.1718122,0.3732657,0.3438766,-1.557031,0.2474736,-0.5078973,0.6578105,5.967844,-0.7381046,0.5343837,-1.654747,0.5835431,0.6463164,1.273331,0.2142968,0.768253,0.4031321,0.5704435,0.1626312,0.2934976,-3.776258,0.285097,-0.3999242,-0.3439058,0.2997405,0.2659837
33.49339,-1.560675,11.26565,-1.743227,1.194312,8.799466,0.6042086,0.08657707,20.30228,9.265894,0.3750513,0.098952,0.06495888,-0.1890255,-0.1331996,1.236686,0.3336568,-0.2196804,-1.45753,0.3269938,-0.3192362,0.574232,-0.7145566,-0.7279428,0.5015159,-3.16857,0.5825484,0.8520663,-9.631045,-1.464787,-1.151809,0.3900016,0.5897477,0.1517826,-0.1077796,-0.709299,0.3009986,0.1351586,-0.3499317,0.3030908,0.2649773
33.62138,-2.313854,-3.347375,-1.460606,1.546013,21.38611,0.8864741,-0.2027227,-16.41598,-3.870655,-1.035126,0.5076846,0.2052754,0.1222297,0.3515052,6.200311,0.663992,0.4942725,-1.210662,0.445976,-0.1459329,1.446997,3.878265,-0.7092871,0.53616,-15.20677,0.603958,0.6985707,10.05654,-3.056702,2.243693,0.4189721,0.6207766,0.1759603,-0.04742708,-6.581908,0.3019522,0.2304801,-0.3063453,0.3042539,0.2809925
33.74938,-1.64984,14.76689,-1.372801,1.554538,-2.617063,0.8741332,0.3205334,19.59203,-1.394991,2.554425,0.4351055,0.2756659,0.06757892,-0.3159536,-6.172773,0.6350797,0.07335797,-1.220169,0.4274389,-0.1354249,0.2558461,-3.00507,-0.6790935,0.5344349,-1.591679,0.6202401,0.3248246,-15.60605,3.462392,-1.132436,0.4125391,0.6186576,0.1576844,0.05557863,5.700559,0.317335,-0.3905138,-0.3561451,0.3133034,0.2770146
33.87738,-2.249629,-3.419682,-1.327133,1.515165,-0.02211791,0.9579421,0.1025552,14.41604,-5.755317,4.365372,0.4143295,0.2725947,0.03806304,0.3098235,11.27772,0.6413164,-0.5997066,-1.163201,0.4158127,-0.1361915,1.254756,0.242553,-0.6675189,0.5315046,3.833346,0.624684,0.6635974,-10.35901,3.663537,-0.9632641,0.4102241,0.6246051,0.1455512,-0.01113864,-8.332731,0.3326533,-0.1941013,-0.3923972,0.3215443,0.2884621
34.00538,-4.869211,-2.218359,-1.351856,1.396197,12.50138,0.8516671,0.07941209,2.584055,10.27866,-0.05662986,0.2660473,0.2964718,-0.1057433,-0.08401614,0.716193,0.5453038,-1.482131,-1.282508,0.3184784,-0.2684639,2.655274,-11.90313,-0.6750537,0.523774,-6.519043,0.6336624,0.8480311,1.677793,1.43742,1.029234,0.3955381,0.5929347,0.1288711,0.06838217,-2.68368,0.3228272,0.1638002,-0.3977779,0.3138765,0.2839299
34.13338,-1.043164,-9.775897,-1.487869,1.251338,-16.03799,0.7847809,0.5560131,-12.95304,-4.762207,2.623073,0.08828507,0.1767869,-0.2454528,-0.1496516,-0.03350411,0.3695355,-1.723246,-1.442407,0.2186859,-0.4509853,-0.1068662,-0.7496877,-0.6864185,0.4977854,11.34204,0.5969655,0.3455443,3.856859,-0.9247424,0.2462348,0.387518,0.566949,0.1219207,0.1003032,-0.648311,0.3130197,1.268679,-0.3946359,0.3157872,0.2829556
34.26138,-1.561226,15.10119,-1.63179,1.110855,-4.735188,0.6394045,-0.2898794,-17.06861,0.08375251,-3.371174,0.1273751,0.1370304,-0.2292112,0.1753724,0.1954606,0.5159738,-1.628026,-1.198936,0.3967711,-0.1105693,0.2937654,-10.12163,-0.6946411,0.4910477,-3.81818,0.6250429,0.9246763,-1.850833,3.766875,2.453008,0.3959631,0.5990375,0.125588,0.2673677,-0.7623003,0.3145833,-0.3169171,-0.3958168,0.3452828,0.285096
34.38938,-2.756049,2.419669,-1.266492,1.508753,-14.08709,0.9942497,-0.287187,-5.029213,-15.92397,-2.664145,0.3818,0.2925783,-0.009440006,-0.4918263,3.246332,0.7136331,-2.601409,-1.098993,0.4311819,-0.0390613,1.885123,2.103747,-0.651895,0.5270178,9.316321,0.6563653,0.8988768,3.281101,8.116426,0.4717969,0.4103827,0.5763745,0.1316823,0.5709802,-3.24642,0.3411978,1.112431,-0.4073878,0.3406455,0.3048388
34.51738,-0.8107948,9.101992,-1.232458,1.411253,-7.807961,0.9817591,0.4020245,9.049395,5.35607,0.4252039,0.3073582,0.3054371,-0.09406699,0.1404067,4.598124,0.6666512,-0.6361049,-1.142452,0.3961202,-0.07001557,-0.1388012,-5.76737,-0.6505948,0.5133162,7.738376,0.6710078,0.5361478,-2.885157,-5.225847,-0.8343501,0.4004298,0.6082193,0.1320446,0.2520817,-0.3015008,0.3486826,-0.4685483,-0.3812132,0.3302155,0.3032815
34.64538,-3.633262,-2.224016,-1.264187,1.41136,2.509906,0.9460039,0.1709062,-8.526329,13.66676,-0.08352154,0.2287021,0.2752554,-0.1442459,-0.06775182,-9.608737,0.5849307,-1.036717,-1.202502,0.3238904,-0.1970904,2.000071,0.6642553,-0.6497347,0.5137221,0.2245859,0.653571,0.5616403,3.702667,-5.972278,0.3050784,0.3981012,0.6114307,0.1329139,0.2015873,10.86416,0.3425555,0.2693443,-0.4007344,0.3174504,0.2915801
34.77338,-0.9079413,-21.2882,-1.405219,1.241764,-9.75885,0.8019677,0.5676585,-16.58944,-5.282114,2.819873,0.06436328,0.1853611,-0.3082428,-0.4932778,-4.209722,0.4464337,-1.586972,-1.386331,0.2043207,-0.3946977,-1.052298,12.07429,-0.6626915,0.5017748,5.375507,0.654239,0.2803796,3.127686,4.417347,-1.834021,0.3822622,0.6110818,0.1238213,0.4117614,0.7747828,0.3194669,0.618754,-0.3963641,0.3143282,0.2857841
34.90137,-1.695337,9.453229,-1.601711,1.068065,-1.884611,0.6172321,0.4385552,10.76088,8.997341,1.15783,-0.1117078,0.0004682534,-0.4596077,-0.06008628,-0.2006942,0.275989,-0.4941495,-1.503552,0.164093,-0.4568277,0.321795,-4.657471,-0.6758499,0.4872127,5.680127,0.6584932,0.4880913,-9.691105,-7.16439,1.225304,0.3704776,0.6553188,0.102721,0.06173627,3.143333,0.3167899,-0.1803789,-0.3883096,0.3086044,0.2703628
35.02937,-2.541916,-5.204613,-1.471035,1.308479,10.60754,0.8685552,-0.1272947,24.29716,5.455225,-0.928248,0.2621674,0.3046906,-0.1350205,-0.2515713,-3.364482,0.6531397,0.4602251,-1.216097,0.3453218,-0.1831947,0.403913,-3.000923,-0.6705678,0.493109,-5.326642,0.6354471,0.6888707,-27.03311,-3.458691,2.62208,0.4045026,0.6008708,0.1333211,0.352898,4.560361,0.3487525,-1.932779,-0.3386366,0.3133051,0.2938961
35.15738,-2.553658,9.352232,-1.35699,1.385241,-16.24071,0.9103353,0.1145801,-1.252376,-14.90901,0.9055957,0.1740671,0.3906989,-0.1683073,-0.1997344,-0.09111361,0.6393936,-1.233498,-1.280666,0.2867494,-0.2650844,0.5997712,-4.730069,-0.6463429,0.5208272,4.469321,0.6498033,0.9872087,5.236036,9.860535,0.3296913,0.3961528,0.640099,0.1438765,0.286323,-0.7960534,0.3727613,0.5534963,-0.3539272,0.3079126,0.28945
35.28537,-1.226009,9.52935,-1.418842,1.320265,-12.44643,0.8758392,-0.08431783,0.1031023,-5.691022,-1.500235,0.1617681,0.3118568,-0.1922109,-0.162487,-13.42901,0.623374,-0.01897848,-1.28415,0.2793416,-0.2686726,-0.7526155,1.932241,-0.6451032,0.512387,1.351578,0.6301142,0.8701543,-1.28683,6.050354,-0.541831,0.3945644,0.6742614,0.1344691,0.4510118,6.765793,0.3421959,-0.2198665,-0.3829291,0.3080624,0.2950251
35.41337,-1.437252,8.542547,-1.490017,1.234288,-3.410295,0.7730265,0.0379327,-3.999926,3.057368,-2.185679,0.02388101,0.3183027,-0.3173866,-0.4800555,-2.223642,0.4894621,0.5945429,-1.419272,0.1765265,-0.4512991,0.4043451,3.053928,-0.6551066,0.4956226,0.09195322,0.6279371,0.7353203,4.788486,-5.824367,0.4746686,0.3799616,0.6081427,0.1183396,0.3300448,3.593642,0.3491767,-1.45584,-0.3727278,0.3013806,0.292506
35.54137,-1.30621,-19.48922,-1.66649,1.066468,8.377127,0.6244911,0.3163275,12.76673,-10.99352,-5.389044,-0.1638584,0.1984801,-0.5007414,-0.250825,-5.741959,0.3092788,-0.5585793,-1.598251,0.05942306,-0.6412915,0.1831504,12.70671,-0.6562089,0.4888667,3.475291,0.6375294,0.8170786,-2.432515,-1.124418,2.645415,0.3750657,0.6431897,0.1111811,0.1341883,3.191294,0.344357,-1.517032,-0.3827799,0.2973148,0.2754594
35.66937,-3.147613,-17.62893,-1.780886,0.9543509,10.31734,0.5879426,-0.01990117,3.340983,-6.795922,0.05303578,-0.01588569,0.2448251,-0.3766622,-0.2143608,-9.226931,0.5715196,-0.1723178,-1.298729,0.2897272,-0.280523,0.8342313,9.222438,-0.6905144,0.4639969,-2.897929,0.6174465,0.6760407,-5.459222,8.524338,0.0325802,0.3833282,0.651986,0.132352,0.3245028,3.78917,0.3491963,-0.8029521,-0.3643772,0.3093602,0.2798636
35.79737,-1.798131,-15.35272,-1.475315,1.40117,-18.7829,0.9094319,0.5907809,13.02921,13.05318,-0.1498697,0.2104392,0.3867953,-0.1623615,0.3559145,5.976626,0.6989305,-2.211844,-1.269691,0.3058015,-0.2743012,0.2021023,11.84931,-0.62636,0.5092086,11.94845,0.6537218,0.2316509,-5.648676,-9.965334,0.4239496,0.4025558,0.6737211,0.1441918,-0.08267159,-4.27845,0.3649907,0.4495119,-0.3392637,0.3048317,0.2954505
35.92537,-0.6835449,-8.879695,-1.499814,1.316896,-11.42002,0.8672466,0.1941033,12.59962,-12.05716,-2.526111,0.1472557,0.3820478,-0.2184635,0.05919493,8.399691,0.6687295,-1.963781,-1.300902,0.2860599,-0.2830274,0.07825255,6.343377,-0.6416683,0.5025834,7.863937,0.6317137,0.6180838,-10.11235,3.05678,-0.518765,0.3981598,0.6647732,0.1424384,0.2713947,-6.749863,0.3677703,0.8787228,-0.3342879,0.3092095,0.2978758
36.05337,-2.155379,-3.49348,-1.519096,1.285133,-12.20558,0.8527881,0.5907446,6.089974,-12.63105,3.148858,0.08279842,0.4318334,-0.2770341,-0.004278757,-3.219953,0.589003,-0.18,-1.380212,0.2074262,-0.3888006,1.47089,2.363417,-0.6457714,0.5022901,0.6647312,0.6263756,0.4309011,-2.078412,8.766129,-2.670008,0.3837112,0.6227006,0.1419448,0.2823156,5.619574,0.3594464,-1.153215,-0.3468185,0.3063444,0.2890492
36.18137,-1.974165,-4.129152,-1.656911,1.121344,-16.42927,0.7247773,0.05630429,-4.406041,-8.296122,-5.74529,-0.1180763,0.259912,-0.4317652,-0.3584469,-7.123055,0.4320372,-0.6643963,-1.53748,0.09045424,-0.5703673,0.4178772,2.632058,-0.6561286,0.4871809,12.74717,0.6233654,0.6246883,7.344332,3.857076,1.912195,0.3832614,0.6601875,0.131439,0.157499,3.666435,0.3486837,-0.5393676,-0.3688931,0.30144,0.2864801
36.30937,-3.139652,-21.1227,-1.80885,0.9500893,3.455857,0.5472513,-0.2097783,8.816262,-5.069055,-3.337524,-0.2659362,0.1462994,-0.6021347,-0.5529639,-0.3061442,0.2783982,-0.9145706,-1.633711,0.08064163,-0.566395,0.5782124,16.10087,-0.6745518,0.473875,-0.782903,0.6232925,0.9755565,-6.018127,4.391279,1.800384,0.3667402,0.6758942,0.1196755,0.563324,0.1788591,0.3425708,-0.3852423,-0.3613872,0.3021939,0.2708211
36.43737,-2.890665,4.187444,-1.645239,1.218889,6.494862,0.8403121,0.1535727,-0.5763831,13.41698,-3.858031,0.1811718,0.3492593,-0.2490353,0.4246892,-3.851982,0.6945112,-0.9942106,-1.272506,0.2831321,-0.2742194,0.6070127,1.213603,-0.6596129,0.4988249,-0.07125477,0.6481763,0.9061331,1.044584,-7.087413,2.674503,0.3986055,0.6504881,0.1545552,0.02027818,2.437356,0.3523981,-0.2632688,-0.3370543,0.3127755,0.2959737
36.56536,-2.56973,13.21504,-1.533142,1.356081,10.06087,0.9152716,0.1144035,13.07354,-9.58923,1.944439,0.1294485,0.339469,-0.2525515,-0.09959574,-5.65005,0.6405673,-0.3506277,-1.316318,0.2554049,-0.3285688,1.459564,-8.027989,-0.6499106,0.5043042,-1.077726,0.6296147,0.795085,-7.904353,6.054691,-0.3493967,0.3966865,0.6890312,0.147839,0.3493737,1.487283,0.3611712,-0.07469504,-0.3474565,0.3057685,0.2901928
36.69336,-4.140925,-11.90657,-1.573607,1.291857,-1.455449,0.8506435,0.6884233,1.394873,1.712853,2.32195,0.117894,0.4429237,-0.265788,0.1491631,10.33423,0.6341872,-0.04731591,-1.339479,0.2218966,-0.3618836,1.167747,9.883496,-0.6560391,0.4997261,1.359535,0.6454411,0.6133291,5.974553,-0.1900266,-0.5869293,0.3908128,0.6098999,0.1480044,-0.1247407,-4.614334,0.3628873,-0.5829803,-0.3534698,0.3122746,0.2948563
36.82136,-2.465101,-0.4332074,-1.655846,1.188583,-17.78902,0.7549373,0.5110758,12.5728,7.60355,4.485891,-0.04457564,0.3029445,-0.3840134,0.1014488,-2.057416,0.4917301,-1.057784,-1.502595,0.1200581,-0.5141836,1.416363,-1.34671,-0.6548672,0.4919229,9.409719,0.6404178,0.7144347,-3.6887,-0.2900968,-1.123921,0.3882686,0.6564316,0.1389011,0.1974845,-1.750997,0.3564693,0.4854751,-0.3559943,0.3067983,0.291648
36.94936,-0.8343961,0.6566674,-1.80682,1.00859,-14.52402,0.5936746,0.156716,6.586661,-0.3724532,5.690016,-0.2148563,0.1857345,-0.5460023,0.1957688,4.27247,0.3332627,0.5892038,-1.633609,0.01314254,-0.6973754,-0.3729662,-3.111829,-0.678178,0.4816194,10.88121,0.6462445,0.8231051,-2.466782,2.088288,-3.231446,0.3734722,0.6968815,0.127908,0.110327,1.633677,0.341652,-1.852795,-0.3824207,0.2968487,0.287123
37.07736,-3.285794,7.129389,-1.985137,0.8535416,-20.2713,0.4852549,0.5952787,-0.5560073,-14.29766,-1.055629,-0.3309973,0.1117263,-0.6593631,-0.1518562,-8.00595,0.2844133,-1.036053,-1.605696,0.1027489,-0.5159628,1.126681,-12.67793,-0.6797283,0.4659033,11.21684,0.6137796,0.4776484,0.8738027,10.49121,-0.1813182,0.3670519,0.6767549,0.1168709,0.09351984,9.187618,0.3319454,-0.2887752,-0.3546099,0.3083523,0.271169
37.20536,-1.039386,-1.696427,-1.69486,1.247714,15.33704,0.8330681,0.2343613,13.93385,-0.8800741,-1.518781,0.1192877,0.3444966,-0.2867286,0.3490062,6.350817,0.6109487,1.10926,-1.34597,0.2368467,-0.3383728,0.3559264,6.096684,-0.6646193,0.5025744,-8.168284,0.6487999,0.5952004,-5.29746,-5.596757,1.280152,0.4018574,0.6498565,0.1545385,0.2296576,1.186938,0.3597154,-1.508823,-0.3377596,0.3153663,0.2935271
37.33336,-2.578853,11.8712,-1.646422,1.249287,10.577,0.7826867,0.1242191,9.113239,-9.772297,-6.056392,0.05384185,0.302733,-0.3189997,-0.1314922,-5.239869,0.5668914,0.7066808,-1.415856,0.2176127,-0.4031047,0.8340691,-10.32073,-0.6590704,0.5066332,2.305742,0.6537683,0.836659,-5.400607,11.5933,2.25647,0.3946846,0.6763526,0.1447525,0.3411404,3.925601,0.3558981,-1.811666,-0.3266781,0.3076059,0.2947602
37.46136,-2.10537,11.10709,-1.692242,1.222121,-16.05893,0.7871686,0.6077572,11.64687,4.376707,-1.504358,0.03622665,0.3256346,-0.3202829,0.1120446,-2.812785,0.5297948,-0.5769967,-1.437999,0.1680163,-0.468083,0.7681537,-8.04316,-0.6610252,0.5059484,9.376682,0.6350955,0.4462408,-5.818255,-6.588839,0.7060391,0.3943078,0.6403917,0.1450686,-0.1052807,-0.144575,0.3467338,-0.1277461,-0.3404087,0.3056658,0.2933205
