t_sec,abp_mmHg,resp_arbunit,spo2_unitless,scon_muS
0,85.96764,0.2314941,0.9598774,3.538329
0.05079656,84.3147,0.1181706,0.9598774,3.53187
0.0998698,83.67896,0.03259984,0.9597127,3.538329
0.1497215,86.60338,-0.05990952,0.9598774,3.538329
0.1998712,118.3905,-0.1755464,0.9699246,3.53187
0.2507073,128.181,-0.2218007,0.9697599,3.53187
0.3018688,112.9231,-0.3258738,0.9699246,3.53187
0.3505276,104.1499,-0.4299461,0.9699246,3.53187
0.4005514,102.1155,-0.4484485,0.9697599,3.53187
0.4505707,102.2427,-0.4576988,0.9695953,3.53187
0.4999971,102.497,-0.4623248,0.9697599,3.53187
0.5512461,104.7856,-0.4762012,0.9697599,3.53187
0.5999936,95.24948,-0.4900776,0.9697599,3.53187
0.650041,92.19792,-0.5224555,0.9699246,3.53187
0.6996609,89.0192,-0.5687097,0.9697599,3.53187
0.7496781,87.11198,-0.5987759,0.9697599,3.53187
0.8016884,85.71333,-0.6057136,0.9697599,3.525411
0.8506644,85.20473,-0.603401,0.9697599,3.53187
0.9008688,89.0192,-0.6589065,0.9600421,3.525411
0.9505122,126.0195,-0.6750954,0.9597127,3.53187
1.000502,129.4525,-0.698223,0.9598774,3.53187
1.051799,110.1259,-0.7236631,0.9597127,3.525411
1.100479,109.1087,-0.7074733,0.9597127,3.525411
1.150239,106.3114,-0.6565939,0.9597127,3.53187
1.200362,105.1671,-0.5340192,0.9598774,3.525411
1.250062,106.82,-0.3651895,0.9598774,3.525411
1.301477,106.82,-0.1662952,0.9598774,3.525411
1.350298,93.2151,0.002534538,0.9597127,3.525411
1.400217,92.57936,0.1389856,0.9598774,3.525411
1.449893,91.05358,0.2869995,0.9597127,3.525411
1.500806,89.0192,0.4142002,0.9597127,3.525411
1.551821,87.74771,0.4905198,0.9598774,3.525411
1.600523,86.60338,0.5737779,0.9598774,3.525411
1.650443,95.63092,0.6408471,0.9598774,3.525411
1.700114,126.0195,0.7032912,0.9598774,3.525411
1.75036,129.5796,0.7981132,0.9597127,3.525411
1.801034,112.9231,0.8813704,0.9598774,3.518952
1.850705,107.3286,0.946128,0.9598774,3.518952
1.900485,103.6413,0.9970082,0.9598774,3.525411
1.949986,103.387,1.045575,0.9598774,3.518952
2.000113,105.5485,1.094142,0.9597127,3.518952
2.051671,107.5829,1.121895,0.9598774,3.525411
2.100819,98.80965,1.145022,0.9598774,3.518952
2.149984,94.48659,1.163525,0.9597127,3.518952
2.200814,92.07076,1.175088,0.9598774,3.518952
2.250026,90.29069,1.182025,0.9597127,3.518952
2.300674,88.7649,1.156586,0.9598774,3.518952
2.350573,88.38345,1.112644,0.9598774,3.518952
2.399792,92.45221,1.082578,0.9598774,3.512493
2.450436,119.662,1.034011,0.9598774,3.518952
2.500781,125.1294,0.9808193,0.9598774,3.518952
2.551689,103.6413,0.904498,0.9598774,3.518952
2.600064,95.24948,0.8536186,0.9598774,3.518952
2.649675,93.59654,0.8166147,0.9597127,3.512493
2.700983,102.2427,0.7657344,0.9598774,3.512493
2.750315,107.0743,0.698666,0.9598774,3.518952
2.801647,105.93,0.6315968,0.9598774,3.518952
2.850436,92.83366,0.5760913,0.9598774,3.512493
2.89996,89.78209,0.5043961,0.9597127,3.518952
2.949672,87.87486,0.4373269,0.9598774,3.512493
2.999692,85.96764,0.347131,0.9598774,3.512493
3.051671,85.58618,0.2592468,0.9598774,3.512493
3.100655,86.34908,0.189865,0.9597127,3.512493
3.149955,109.8716,0.1343595,0.9598774,3.512493
3.200676,129.9611,0.07654151,0.9597127,3.512493
3.250233,108.7272,-0.01596785,0.9598774,3.512493
3.301267,105.4214,-0.08303706,0.9597127,3.506034
3.350321,101.4798,-0.1015386,0.9598774,3.512493
3.400308,100.0811,-0.115415,0.9598774,3.512493
3.450434,103.0055,-0.1454803,0.9598774,3.512493
3.500781,105.5485,-0.1847968,0.9597127,3.506034
3.550806,95.63092,-0.2079243,0.9597127,3.506034
3.60069,91.68932,-0.2333644,0.9598774,3.506034
3.650429,88.63776,-0.2842439,0.9597127,3.499574
3.700155,87.74771,-0.3374367,0.9597127,3.499574
3.750272,87.11198,-0.3675029,0.9597127,3.493115
3.800756,85.71333,-0.3836918,0.9598774,3.480197
3.850225,89.78209,-0.4068185,0.9597127,3.473738
3.900058,121.315,-0.4230084,0.9598774,3.473738
3.950692,129.1982,-0.4368847,0.9597127,3.480197
4.000757,113.8132,-0.4738878,0.9598774,3.473738
4.051479,105.6757,-0.4900776,0.9597127,3.480197
4.099945,104.7856,-0.4993279,0.9597127,3.480197
4.150471,103.387,-0.4623248,0.9598774,3.480197
4.199908,104.9128,-0.3813792,0.9597127,3.460819
4.250695,106.4386,-0.2842439,0.9598774,3.493115
4.301507,96.39381,-0.1639826,0.9597127,3.499574
4.350528,93.34225,-0.05065832,0.9597127,3.518952
4.400453,89.78209,0.08579271,0.9598774,3.53187
4.45047,87.87486,0.1968036,0.9598774,3.538329
4.499928,86.34908,0.2962507,0.9597127,3.493115
4.550702,85.33189,0.3956978,0.959548,3.467279
4.600344,84.0604,0.5043961,0.959548,3.45436
4.650727,84.18755,0.6015307,0.9597127,3.460819
4.700426,106.9472,0.6778511,0.959548,3.434983
4.750221,130.0882,0.7611092,0.9597127,3.409146
4.801469,120.1706,0.8374296,0.9598774,3.422065
4.849919,105.93,0.8929342,0.9598774,3.434983
4.899918,102.6241,0.9530665,0.9597127,3.460819
4.94994,101.6069,1.006259,0.9597127,3.486656
5.000926,104.9128,1.0502,0.9597127,3.499574
5.050925,105.93,1.082578,0.9598774,3.506034
5.100186,105.93,1.121895,0.959548,3.506034
5.150715,94.74089,1.163525,0.9597127,3.518952
5.200524,91.05358,1.182025,0.9697599,3.525411
5.250456,88.63776,1.212091,0.9697599,3.512493
5.301146,86.85767,1.237532,0.9695953,3.512493
5.350004,86.47623,1.260658,0.9697599,3.499574
5.40076,85.33189,1.279161,0.9699246,3.493115
5.450176,84.82329,1.297663,0.9697599,3.486656
5.50075,96.52097,1.318477,0.9695953,3.493115
5.551769,123.8579,1.323102,0.9697599,3.506034
5.600424,121.4421,1.311538,0.9697599,3.506034
5.650885,99.44539,1.274535,0.9697599,3.499574
5.700688,90.67213,1.246783,0.9697599,3.493115
5.751727,90.67213,1.221342,0.9697599,3.486656
5.801462,103.387,1.195902,0.9699246,3.486656
5.849916,104.0227,1.158899,0.9697599,3.486656
5.900871,104.0227,1.12652,0.9697599,3.493115
5.950402,86.34908,1.077953,0.9697599,3.493115
6.001048,85.84048,1.031698,0.9699246,3.493115
6.051045,85.07759,0.9576917,0.9699246,3.499574
6.100889,84.82329,0.8952476,0.9697599,3.499574
6.149772,83.55181,0.8582438,0.9699246,3.499574
6.200813,83.55181,0.8235533,0.9697599,3.499574
6.25188,100.2083,0.772673,0.9697599,3.499574
6.301301,125.2566,0.6963526,0.9697599,3.499574
6.35075,114.7032,0.6385345,0.9697599,3.493115
6.40004,98.42819,0.5992181,0.9699246,3.486656
6.449816,88.5106,0.6477857,0.9697599,3.486656
6.501736,92.7065,0.714855,0.9697599,3.486656
6.550943,100.4626,0.6685998,0.9699246,3.480197
6.60094,102.8784,0.5552764,0.9699246,3.480197
6.650172,91.30788,0.4720182,0.9697599,3.480197
6.700036,89.78209,0.4118876,0.9697599,3.480197
6.750891,84.69615,0.3656325,0.9699246,3.480197
6.801655,83.42466,0.3193783,0.9699246,3.480197
6.849913,82.40748,0.252309,0.9697599,3.473738
6.899901,82.40748,0.1389856,0.9695953,3.473738
6.950665,82.15317,0.1436107,0.9697599,3.473738
7.001664,95.37663,0.1459233,0.9697599,3.473738
7.051917,125.5108,0.1204832,0.9699246,3.473738
7.100845,128.0538,0.111232,0.9697599,3.473738
7.150682,105.6757,0.06729032,0.9697599,3.473738
7.199917,101.0983,-0.04834574,0.9699246,3.467279
7.251032,98.42819,-0.2472408,0.9699246,3.473738
7.300908,100.2083,-0.4322587,0.9697599,3.473738
7.350888,101.3526,-0.5108917,0.9697599,3.467279
7.400685,103.7684,-0.6450301,0.9699246,3.473738
7.450387,92.19792,-0.7167245,0.9697599,3.467279
7.500829,89.2735,-0.6866592,0.9697599,3.467279
7.551657,85.20473,-0.6288412,0.9697599,3.467279
7.600847,83.67896,-0.5964624,0.9697599,3.467279
7.650533,82.15317,-0.5548334,0.9699246,3.467279
7.700042,81.26313,-0.6843466,0.9697599,3.473738
7.751408,80.75454,-0.7837937,0.9697599,3.473738
7.801785,98.42819,-0.8092338,0.9697599,3.473738
7.850397,128.3081,-0.8161716,0.9697599,3.467279
7.900508,106.4386,-0.8231102,0.9697599,3.473738
7.950394,104.4042,-0.8924921,0.9697599,3.473738
8.001005,97.79247,-0.9294959,0.9699246,3.467279
8.051919,97.28386,-0.8994306,0.9697599,3.473738
8.10038,98.55534,-0.8832408,0.9697599,3.473738
8.15037,102.3698,-0.834674,0.9699246,3.467279
8.200674,99.19109,-0.7259757,0.9699246,3.467279
8.250781,89.40065,-0.5825861,0.9697599,3.467279
8.301912,86.60338,-0.3698155,0.9699246,3.473738
8.350643,85.20473,-0.115415,0.9697599,3.467279
8.400117,83.04321,0.06497774,0.9697599,3.467279
8.450044,82.02603,0.1574871,0.9697599,3.467279
8.501285,81.89888,0.1875524,0.9697599,3.467279
8.551631,81.26313,0.2268689,0.9697599,3.473738
8.599913,115.5933,0.2708106,0.9699246,3.473738
8.650962,129.1982,0.3378798,0.9697599,3.467279
8.700822,118.8991,0.425764,0.9695953,3.467279
8.750893,101.9884,0.5090221,0.9697599,3.467279
8.801785,94.48659,0.5992181,0.9697599,3.467279
8.849927,94.99519,0.6778511,0.9697599,3.467279
8.900025,97.53816,0.7657344,0.9697599,3.467279
8.949883,103.6413,0.8212407,0.9697599,3.467279
9.001619,94.2323,0.8605564,0.9699246,3.467279
9.051773,86.98483,0.904498,0.9697599,3.467279
9.100403,85.96764,0.946128,0.9697599,3.467279
9.15053,85.20473,0.9623169,0.9697599,3.460819
9.200669,83.29751,0.9808193,0.9697599,3.460819
9.251297,82.91606,0.9715672,0.9699246,3.467279
9.30129,81.64457,0.9808193,0.9699246,3.473738
9.349958,90.67213,0.99932,0.9697599,3.45436
9.400634,121.315,1.022447,0.9700893,3.45436
9.450669,115.339,1.020136,0.9697599,3.460819
9.50161,94.35944,1.017822,0.9697599,3.460819
9.551105,81.77173,1.020136,0.9699246,3.460819
9.599968,84.0604,1.008572,0.9697599,3.460819
9.650661,99.19109,0.9738806,0.9697599,3.460819
9.700361,100.2083,0.904498,0.9695953,3.460819
9.751117,101.0983,0.8374296,0.9699246,3.460819
9.801108,85.20473,0.7680478,0.9699246,3.460819
9.849842,81.64457,0.6755385,0.9695953,3.45436
9.900775,80.11879,0.620033,0.9699246,3.460819
9.950645,79.10161,0.4234505,0.9697599,3.45436
10.00194,78.08442,0.194491,0.9699246,3.460819
10.05124,81.77173,0.07654151,0.9699246,3.45436
10.10094,87.87486,0.02797382,0.9699246,3.45436
10.15022,123.8579,-0.01596785,0.9697599,3.45436
10.20035,106.9472,-0.06916071,0.9697599,3.45436
10.25112,91.81647,-0.1547315,0.9697599,3.45436
10.30184,83.67896,-0.1477928,0.9699246,3.460819
10.35067,90.03638,-0.173233,0.9699246,3.460819
10.39978,100.844,-0.2426148,0.9697599,3.460819
10.45077,100.9712,-0.2865573,0.9697599,3.460819
10.50135,86.85767,-0.3189352,0.9699246,3.460819
10.55143,82.15317,-0.3328116,0.9697599,3.460819
10.59986,78.84731,-0.3721281,0.9697599,3.460819
10.65024,76.94007,-0.3767532,0.9699246,3.460819
10.70093,77.57583,-0.5779609,0.9697599,3.460819
10.75094,77.44867,-0.7953575,0.9699246,3.460819
10.80165,87.62056,-0.8832408,0.9699246,3.460819
10.84984,124.4937,-0.8786157,0.9699246,3.460819
10.89994,128.5624,-0.8485504,0.9699246,3.460819
10.95094,101.6069,-0.8531755,0.9699246,3.460819
11.00113,94.99519,-0.8601142,0.9699246,3.460819
11.05115,94.99519,-0.834674,0.9699246,3.460819
11.09993,95.37663,-0.8069213,0.9695953,3.460819
11.15085,98.42819,-0.7190371,0.9697599,3.460819
11.20069,102.2427,-0.5687097,0.9699246,3.460819
11.25089,90.41783,-0.2888699,0.9697599,3.467279
11.30089,83.17036,-0.03215679,0.9697599,3.460819
11.35089,81.77173,0.1759886,0.9699246,3.467279
11.40068,81.00883,0.3656325,0.9699246,3.467279
11.45085,80.62739,0.4095742,0.9697599,3.467279
11.50091,80.88168,0.4558293,0.9697599,3.467279
11.55093,102.8784,0.5020835,0.9697599,3.460819
11.60093,129.8339,0.557589,0.9699246,3.467279
11.65043,123.2222,0.6177204,0.9697599,3.467279
11.70093,103.7684,0.6547235,0.9697599,3.467279
11.75141,95.37663,0.6963526,0.9697599,3.467279
11.80137,94.86804,0.7611092,0.9699246,3.473738
11.8502,99.82683,0.8073635,0.9697599,3.473738
11.90038,101.7341,0.8605564,0.9697599,3.473738
11.94988,105.1671,0.8998728,0.9697599,3.473738
12.00193,90.67213,0.9368759,0.9699246,3.473738
12.05168,86.22193,0.9576917,0.9699246,3.480197
12.10039,84.569,0.9738806,0.9697599,3.480197
12.15055,82.91606,0.9600034,0.9697599,3.486656
12.20033,82.78893,0.9530665,0.9697599,3.486656
12.2512,88.00201,0.9576917,0.9699246,3.486656
12.30105,122.8407,0.9600034,0.9699246,3.493115
12.3508,123.6036,0.9600034,0.9699246,3.493115
12.40068,102.8784,0.9368759,0.9699246,3.493115
12.45083,89.90925,0.9183752,0.9697599,3.499574
12.50124,86.09478,0.904498,0.9697599,3.499574
12.55176,98.04675,0.8651815,0.9699246,3.506034
12.60015,102.6241,0.8050509,0.9697599,3.506034
12.65039,103.7684,0.7541715,0.9699246,3.512493
12.70093,91.05358,0.7009786,0.9697599,3.512493
12.75114,84.82329,0.6107818,0.9697599,3.518952
12.80138,83.93326,0.5483387,0.9699246,3.518952
12.85063,82.78893,0.3517562,0.9697599,3.525411
12.90039,82.28033,0.1227958,0.9697599,3.525411
12.95089,87.49342,-0.07378587,0.9697599,3.53187
13.00188,124.2394,-0.1871094,0.9697599,3.538329
13.05159,123.7308,-0.2588046,0.9697599,3.544789
13.09987,115.8476,-0.4391973,0.9697599,3.544789
13.15088,93.85085,-0.5779609,0.9697599,3.551248
13.20075,92.96081,-0.5964624,0.9699246,3.557707
13.251,98.80965,-0.6658442,0.9697599,3.557707
13.302,103.7684,-0.7236631,0.9697599,3.564166
13.35004,104.1499,-0.7352269,0.9697599,3.564166
13.40104,91.05358,-0.7329134,0.9697599,3.570625
13.45067,86.34908,-0.7329134,0.9699246,3.570625
13.5017,84.0604,-0.7259757,0.9699246,3.577085
13.5511,83.17036,-0.7676048,0.9697599,3.577085
13.60011,82.66177,-0.8254228,0.9697599,3.577085
13.6506,86.85767,-0.8369866,0.9699246,3.583544
13.70092,124.3665,-0.7213506,0.9699246,3.590003
13.75204,127.9267,-0.5340192,0.9699246,3.590003
13.8015,112.2874,-0.2680549,0.9697599,3.590003
13.85067,105.1671,-0.1246661,0.9697599,3.590003
13.90104,103.6413,0.115858,0.9697599,3.590003
13.95104,102.7513,0.3101271,0.9697599,3.596462
14.0019,103.6413,0.478956,0.9699246,3.596462
14.0515,105.2942,0.5784039,0.9699246,3.596462
14.10092,98.6825,0.6778511,0.9697599,3.602921
14.15072,91.30788,0.7472329,0.9697599,3.602921
14.20066,89.90925,0.8189272,0.9697599,3.602921
14.25097,89.0192,0.8536186,0.9697599,3.602921
14.30104,87.36626,0.8536186,0.9697599,3.602921
14.35033,87.11198,0.8790587,0.9697599,3.60938
14.40016,113.686,0.9137501,0.9697599,3.60938
14.45049,125.638,0.9415027,0.9697599,3.60938
14.50166,110.253,0.9692555,0.9697599,3.615839
14.55099,102.3698,0.9854444,0.9699246,3.615839
14.60087,96.13953,1.034011,0.9697599,3.615839
14.65009,97.66531,1.087203,0.9699246,3.60938
14.70091,105.6757,1.12652,0.9697599,3.615839
14.75116,106.4386,1.135772,0.9697599,3.615839
14.80117,96.26666,1.128833,0.9699246,3.615839
14.8506,92.45221,1.110331,0.9697599,3.622298
14.90062,87.62056,1.084892,0.9697599,3.622298
14.95022,87.11198,1.047889,0.9697599,3.622298
15.00114,86.60338,0.9530665,0.9699246,3.622298
15.05116,86.60338,0.8790587,0.9699246,3.628757
15.10091,87.87486,0.8143021,0.9697599,3.622298
15.14986,125.638,0.7495455,0.9697599,3.622298
15.20064,120.0435,0.6593495,0.9697599,3.628757
15.25158,100.9712,0.4673931,0.9697599,3.628757
15.30191,94.2323,0.3147522,0.9699246,3.628757
15.35091,95.12233,0.1343595,0.9697599,3.628757
15.39991,103.387,-0.006716654,0.9697599,3.628757
15.44991,105.4214,-0.2102369,0.9697599,3.628757
15.5017,98.80965,-0.4623248,0.9697599,3.628757
15.55131,90.67213,-0.6103388,0.9697599,3.628757
15.60015,89.40065,-0.7652922,0.9697599,3.628757
15.65065,86.34908,-0.7537284,0.9699246,3.622298
15.70041,84.95044,-0.7583536,0.9697599,3.622298
15.75128,84.44184,-0.7699174,0.9695953,3.628757
15.80179,89.0192,-0.7837937,0.9697599,3.622298
15.84994,112.1602,-0.8207976,0.9697599,3.622298
15.90015,129.5796,-0.7884189,0.9697599,3.622298
15.9509,113.8132,-0.7491032,0.9697599,3.622298
16.00178,109.363,-0.6889718,0.9697599,3.622298
16.05122,106.0571,-0.6473427,0.9697599,3.622298
16.10062,104.7856,-0.7699174,0.9697599,3.622298
16.15033,104.9128,-1.112201,0.9699246,3.622298
16.20044,105.5485,-1.338849,0.9697599,3.622298
16.25178,96.64812,-1.230151,0.9697599,3.622298
16.30091,95.50377,-1.049758,0.9697599,3.628757
16.35041,92.57936,-0.7120993,0.9697599,3.628757
16.4009,90.41783,-0.3281864,0.9699246,3.628757
16.4509,89.2735,-0.1824842,0.9697599,3.628757
16.50163,88.7649,-0.002091485,0.9697599,3.628757
16.55142,92.45221,0.08810529,0.9697599,3.628757
16.6001,119.1534,0.1875524,0.9699246,3.635217
16.65038,128.6896,0.3216908,0.9699246,3.641676
16.70002,112.4145,0.425764,0.9697599,3.641676
16.7509,105.6757,0.5067087,0.9697599,3.641676
16.80186,104.4042,0.620033,0.9697599,3.648135
16.85003,104.0227,0.7241053,0.9697599,3.648135
16.90078,106.1843,0.8189272,0.9697599,3.654594
16.95063,107.4557,0.9114366,0.9697599,3.661053
17.0019,97.53816,0.9646303,0.9697599,3.667513
17.05177,94.35944,1.006259,0.9697599,3.673972
17.10028,93.34225,1.0502,0.9697599,3.680431
17.15025,92.45221,1.094142,0.9697599,3.680431
17.20015,88.63776,1.121895,0.9697599,3.693349
17.25135,87.49342,1.149647,0.9697599,3.693349
17.30202,90.41783,1.182025,0.9699246,3.706268
17.35039,112.5417,1.191277,0.9697599,3.712727
17.40027,125.3837,1.193589,0.9699246,3.712727
17.45002,104.1499,1.161211,0.9697599,3.725645
17.50115,96.26666,1.138084,0.9699246,3.738563
17.5509,92.83366,1.133458,0.9697599,3.745023
17.60089,98.6825,1.105706,0.9699246,3.757941
17.65057,105.5485,1.064077,0.9699246,3.7644
17.6999,105.2942,1.031698,0.9697599,3.777318
17.75198,92.57936,0.9877562,0.9699246,3.790237
17.80173,88.00201,0.946128,0.9697599,3.803155
17.8501,86.47623,0.8836839,0.9695953,3.816073
17.90082,85.07759,0.8328036,0.9697599,3.828992
17.95035,84.82329,0.7472329,0.9697599,3.84191
18.0014,85.58618,0.6593495,0.9699246,3.854828
18.05122,107.8372,0.5876543,0.9697599,3.867747
18.10071,122.5864,0.5344614,0.9697599,3.887124
18.1501,112.2874,0.483582,0.9697599,3.893583
18.2001,100.3354,0.3956978,0.9699246,3.906502
18.25127,94.61374,0.3494436,0.9699246,3.912961
18.3011,92.45221,0.3332546,0.9699246,3.925879
18.35014,102.6241,0.3124397,0.9699246,3.932338
18.40014,104.5313,0.2869995,0.9699246,3.945257
18.4501,92.19792,0.2453704,0.9699246,3.958175
18.50108,88.5106,0.189865,0.9697599,3.964634
18.55183,84.18755,0.1412981,0.9697599,3.971093
18.60035,83.17036,0.09504304,0.9697599,3.977553
18.65097,83.42466,0.06497774,0.9697599,3.990471
18.70085,82.78893,0.007159707,0.9697599,3.990471
18.75197,81.39028,-0.1824842,0.9697599,4.003389
18.80161,82.40748,-0.3443753,0.9699246,4.009848
18.85046,114.9575,-0.3790658,0.9699246,4.016308
18.90039,128.6896,-0.3836918,0.9695953,4.022767
18.95109,110.7616,-0.4068185,0.9697599,4.029226
19.00166,103.5141,-0.4576988,0.9697599,4.035685
19.05134,100.9712,-0.450761,0.9699246,4.042144
19.10086,100.7169,-0.4345713,0.9697599,4.042144
19.15038,103.7684,-0.4276335,0.9697599,4.055062
19.20008,104.1499,-0.4206949,0.9697599,4.055062
19.25213,94.48659,-0.404506,0.9697599,4.061522
19.30213,89.14634,-0.330499,0.9699246,4.067981
19.35022,87.36626,-0.1963605,0.9697599,4.07444
19.40013,86.34908,-0.02753162,0.9697599,4.087358
19.45013,84.82329,0.09273046,0.9697599,4.093818
19.50139,83.93326,0.1991162,0.9697599,4.100276
19.55197,82.15317,0.2546216,0.9697599,4.113195
19.60108,81.77173,0.3286286,0.9697599,4.119654
19.6507,110.3802,0.4234505,0.9697599,4.126113
19.70062,129.1982,0.5460252,0.9699246,4.139032
19.75101,113.9403,0.6963526,0.9697599,4.139032
19.80156,103.5141,0.756484,0.9699246,4.145491
19.85007,99.06393,0.8189272,0.9697599,4.15195
19.90113,97.66531,0.8975611,0.9699246,4.15195
19.95114,101.4798,0.9808193,0.9699246,4.158409
20.00138,103.7684,1.059451,0.9699246,4.158409
20.05209,93.59654,1.103394,0.9697599,4.171328
20.1006,91.30788,1.149647,0.9697599,4.171328
20.15042,88.25631,1.193589,0.9697599,4.184246
20.2,86.73053,1.212091,0.9699246,4.190705
20.25113,84.569,1.232906,0.9699246,4.197164
20.30113,84.18755,1.22828,0.9699246,4.203623
20.35061,83.55181,1.242158,0.9697599,4.210082
20.40071,87.49342,1.256033,0.9699246,4.223001
20.45013,117.6276,1.258346,0.9697599,4.235919
20.50132,122.0779,1.260658,0.9697599,4.235919
20.55121,95.50377,1.249094,0.9697599,4.242378
20.60082,85.07759,1.239844,0.9697599,4.242378
20.65008,85.96764,1.212091,0.9699246,4.255297
20.70043,99.82683,1.151961,0.9697599,4.261755
20.7513,102.1155,1.071014,0.9697599,4.268215
20.80098,93.34225,0.9923831,0.9699246,4.281133
20.85083,87.87486,0.929939,0.9697599,4.294052
20.90075,81.77173,0.8258659,0.9697599,4.30051
20.95113,81.00883,0.7287313,0.9697599,4.30051
21.00205,79.73734,0.5922803,0.9699246,4.294052
21.05146,79.10161,0.4581419,0.9697599,4.30051
21.09999,79.10161,0.3586948,0.9697599,4.30697
21.15079,109.6173,0.2661854,0.9699246,4.30051
21.20075,125.638,0.1713635,0.9699246,4.30051
21.25164,111.7788,0.1135454,0.9697599,4.30051
21.30177,92.96081,0.01178488,0.9697599,4.30051
21.35078,86.60338,0.002534538,0.9699246,4.30051
21.40062,89.2735,-0.006716654,0.9699246,4.30697
21.45081,96.90242,-0.02521904,0.9699246,4.30697
21.50155,101.4798,-0.0622221,0.9697599,4.30697
21.55129,86.85767,-0.07609846,0.9699246,4.30697
21.6006,82.40748,-0.08997482,0.9699246,4.30697
21.65034,78.84731,-0.1200401,0.9699246,4.313429
21.69995,78.72016,-0.1131024,0.9697599,4.326347
21.75133,78.72016,-0.2125495,0.9697599,4.326347
21.8018,78.46587,-0.3675029,0.9697599,4.326347
21.85033,89.5278,-0.4600114,0.9699246,4.326347
21.90008,123.2222,-0.46695,0.9697599,4.326347
21.95095,126.6552,-0.4530737,0.9697599,4.326347
22.00158,103.8956,-0.4738878,0.9699246,4.326347
22.05106,99.31824,-0.4993279,0.9699246,4.326347
22.10081,98.30104,-0.4785138,0.9697599,4.332807
22.15117,99.31824,-0.46695,0.9697599,4.332807
22.20061,102.497,-0.4646374,0.9699246,4.332807
22.25212,104.9128,-0.4484485,0.9697599,4.326347
22.30132,89.65494,-0.4299461,0.9697599,4.326347
22.35106,88.12916,-0.4230084,0.9697599,4.332807
22.40117,85.58618,-0.4183823,0.9699246,4.332807
22.4508,83.29751,-0.4646374,0.9697599,4.332807
22.50181,82.53461,-0.5432696,0.9699246,4.332807
22.55109,85.96764,-0.6357789,0.9697599,4.326347
22.6003,114.7032,-0.6427175,0.9699246,4.326347
22.65058,129.8339,-0.6172774,0.9697599,4.326347
22.70024,116.3562,-0.5941498,0.9699246,4.332807
22.75156,103.1327,-0.6010885,0.9697599,4.326347
22.80171,98.42819,-0.540957,0.9699246,4.326347
22.85076,97.66531,-0.4484485,0.9697599,4.326347
22.90075,102.6241,-0.3443753,0.9699246,4.326347
22.95059,104.5313,-0.2148621,0.9697599,4.326347
23.00137,89.90925,-0.08534965,0.9697599,4.326347
23.05159,88.7649,0.03491243,0.9699246,4.326347
23.10106,87.49342,0.1343595,0.9697599,4.326347
23.15105,85.71333,0.2268689,0.9697599,4.319888
23.20077,84.569,0.2731231,0.9699246,4.319888
23.25186,83.67896,0.3240034,0.9697599,4.319888
23.3019,111.906,0.404949,0.9699246,4.319888
23.35036,128.5624,0.478956,0.9697599,4.319888
23.40044,127.6724,0.5437126,0.9699246,4.319888
23.45124,101.3526,0.6015307,0.9697599,4.319888
23.50123,97.53816,0.6917274,0.9697599,4.313429
23.55129,97.53816,0.772673,0.9697599,4.319888
23.60024,105.5485,0.8582438,0.9699246,4.313429
23.65037,106.6929,0.8975611,0.9697599,4.313429
23.70003,101.2255,0.929939,0.9699246,4.313429
23.75141,92.96081,0.9715672,0.9697599,4.313429
23.80142,89.90925,0.99932,0.9697599,4.30697
23.85019,88.12916,1.022447,0.9700893,4.30697
23.90015,87.36626,1.054825,0.9699246,4.30697
23.95007,86.73053,1.077953,0.9697599,4.313429
24.00117,93.2151,1.094142,0.9699246,4.30697
24.05104,122.4593,1.110331,0.9697599,4.313429
24.10123,124.6208,1.114958,0.9697599,4.313429
24.15119,100.7169,1.098767,0.9699246,4.313429
24.20019,91.05358,1.089517,0.9699246,4.313429
24.25215,93.72369,1.075641,0.9697599,4.313429
24.3022,105.8028,1.052514,0.9699246,4.30697
24.35094,107.71,1.034011,0.9699246,4.313429
24.40066,106.3114,1.013197,0.9700893,4.313429
24.45102,92.96081,0.9715672,0.9697599,4.313429
24.50157,89.5278,0.9230004,0.9697599,4.313429
24.55123,87.49342,0.8859974,0.9699246,4.30697
24.60032,86.98483,0.7888619,0.9700893,4.30697
24.65057,87.23911,0.6824762,0.9697599,4.30697
24.70056,107.5829,0.6269708,0.9699246,4.30697
24.75126,127.5452,0.5668402,0.9699246,4.30697
24.80159,124.1122,0.5298362,0.9699246,4.30697
24.85104,102.3698,0.4442655,0.9699246,4.30697
24.9012,95.37663,0.4165128,0.9697599,4.30051
24.95032,95.12233,0.3933852,0.9697599,4.30051
25.00167,106.0571,0.3679451,0.9697599,4.30051
25.05143,108.3458,0.3216908,0.9699246,4.30051
25.1008,108.3458,0.2754366,0.9699246,4.30051
25.15065,93.34225,0.2268689,0.9697599,4.294052
25.20091,89.78209,0.1621123,0.9598774,4.294052
25.25204,88.38345,0.1343595,0.9598774,4.294052
25.30206,87.87486,0.06960291,0.9598774,4.294052
25.35022,86.98483,-0.05065832,0.9598774,4.294052
25.40016,99.57254,-0.1871094,0.9598774,4.287592
25.45119,128.8167,-0.2449282,0.9600421,4.287592
25.50216,129.3253,-0.2657423,0.9598774,4.287592
25.55205,112.6688,-0.3536265,0.9598774,4.287592
25.60052,108.9815,-0.4831389,0.9598774,4.287592
25.65019,105.6757,-0.46695,0.9598774,4.287592
25.70002,105.6757,-0.4553862,0.9598774,4.287592
25.75204,107.0743,-0.4623248,0.9597127,4.287592
25.80118,100.9712,-0.4623248,0.9600421,4.281133
25.85002,97.9196,-0.46695,0.9600421,4.281133
25.90109,94.10515,-0.4715752,0.9598774,4.281133
25.95059,91.81647,-0.4553862,0.9597127,4.281133
26.00155,90.16354,-0.4530737,0.9597127,4.281133
26.0513,89.5278,-0.4230084,0.9600421,4.281133
26.10118,89.14634,-0.4877641,0.9598774,4.281133
26.15068,87.23911,-0.5617719,0.9597127,4.281133
26.20007,91.56216,-0.6311538,0.9598774,4.281133
26.25134,130.9782,-0.6219026,0.9598774,4.274674
26.3013,131.1054,-0.5895247,0.9600421,4.281133
26.35052,111.5245,-0.6010885,0.9597127,4.281133
26.40005,109.4901,-0.6357789,0.9598774,4.281133
26.45043,107.2015,-0.5478956,0.9598774,4.281133
26.50155,107.9643,-0.4415099,0.9598774,4.274674
26.55155,109.2358,-0.3328116,0.9597127,4.274674
26.60084,109.1087,-0.1917354,0.9598774,4.281133
26.65027,98.04675,-0.09460084,0.9597127,4.274674
26.70089,96.01237,0.01178488,0.9598774,4.274674
26.75184,93.72369,0.1066068,0.9598774,4.274674
26.80153,92.19792,0.2014288,0.9598774,4.274674
26.85106,90.54498,0.2846869,0.9600421,4.274674
26.90106,89.0192,0.3887601,0.9598774,4.274674
26.95106,88.00201,0.4650796,0.9598774,4.274674
27.0021,85.07759,0.5043961,0.9598774,4.268215
27.05104,84.44184,0.5506513,0.9597127,4.274674
27.10081,87.74771,0.6130944,0.9600421,4.274674
27.1508,127.0366,0.6847897,0.9598774,4.274674
27.20051,110.1259,0.7356691,0.9600421,4.274674
27.25151,105.0399,0.7680478,0.9598774,4.268215
27.30132,103.0055,0.8258659,0.9598774,4.268215
27.35006,102.8784,0.9114366,0.9598774,4.274674
27.40055,106.0571,0.9808193,0.9598774,4.274674
27.45131,107.5829,1.022447,0.9598774,4.274674
27.50146,97.66531,1.052514,0.9598774,4.268215
27.55171,95.88522,1.077953,0.9598774,4.268215
27.60033,92.57936,1.098767,0.9598774,4.268215
27.65016,91.18073,1.124208,0.9598774,4.268215
27.70117,89.78209,1.135772,0.9597127,4.261755
27.75146,88.63776,1.149647,0.9597127,4.268215
27.80114,87.49342,1.14271,0.9598774,4.261755
27.85063,85.71333,1.117269,0.9598774,4.261755
27.90054,86.22193,1.09183,0.9598774,4.261755
27.95059,97.15671,1.059451,0.9597127,4.268215
28.00129,123.095,1.003945,0.9597127,4.261755
28.05163,106.0571,0.9553783,0.9598774,4.261755
28.10028,100.4626,0.8767453,0.9598774,4.261755
28.15106,91.05358,0.84668,0.9598774,4.261755
28.20108,100.844,0.8004257,0.9600421,4.261755
28.25171,104.0227,0.7402951,0.9600421,4.261755
28.30117,104.4042,0.6547235,0.9598774,4.261755
28.35026,89.90925,0.5529638,0.9598774,4.261755
28.40028,88.89205,0.4858946,0.9600421,4.261755
28.45076,86.85767,0.4303891,0.9598774,4.261755
28.50154,84.44184,0.3656325,0.9600421,4.261755
28.55227,83.55181,0.2615594,0.9598774,4.261755
28.601,83.04321,0.2014288,0.9598774,4.261755
28.65078,82.02603,0.02797382,0.9598774,4.261755
28.7007,82.02603,-0.2125495,0.9598774,4.261755
28.75196,108.2186,-0.3189352,0.9598774,4.261755
28.80128,127.6724,-0.3443753,0.9598774,4.261755
28.85086,114.1946,-0.3513131,0.9598774,4.261755
28.90114,104.9128,-0.4021934,0.9598774,4.261755
28.95103,97.66531,-0.4415099,0.9598774,4.261755
29.00195,96.52097,-0.4230084,0.9598774,4.261755
29.05154,101.3526,-0.4230084,0.9598774,4.261755
29.10061,103.7684,-0.4206949,0.9598774,4.255297
29.151,103.6413,-0.4137571,0.9598774,4.261755
29.20026,89.2735,-0.4068185,0.9699246,4.261755
29.25113,86.47623,-0.404506,0.9699246,4.255297
29.30153,83.55181,-0.3929422,0.9697599,4.255297
29.35125,82.53461,-0.3605643,0.9697599,4.255297
29.40105,81.89888,-0.3235604,0.9699246,4.255297
29.45025,81.26313,-0.309684,0.9697599,4.255297
29.50218,80.11879,-0.4391973,0.9697599,4.255297
29.55221,83.04321,-0.5085791,0.9697599,4.255297
29.60103,109.363,-0.5270806,0.9699246,4.255297
29.65039,127.6724,-0.5062665,0.9699246,4.255297
29.70126,116.3562,-0.4877641,0.9699246,4.255297
29.75119,102.8784,-0.5224555,0.9699246,4.255297
29.80116,100.0811,-0.5201429,0.9699246,4.255297
29.85054,99.57254,-0.4600114,0.9697599,4.248837
29.90024,101.8612,-0.4276335,0.9699246,4.248837
29.95008,103.387,-0.3675029,0.9699246,4.248837
30.00182,92.45221,-0.2726809,0.9699246,4.248837
30.05182,89.90925,-0.1385425,0.9699246,4.248837
30.10041,87.11198,-0.01596785,0.9699246,4.248837
30.15017,84.18755,0.1135454,0.9697599,4.248837
30.20016,83.04321,0.2222437,0.9699246,4.248837
30.25161,82.15317,0.3425049,0.9697599,4.248837
30.30127,81.26313,0.4142002,0.9699246,4.248837
30.35077,81.00883,0.483582,0.9697599,4.248837
30.40065,81.77173,0.5483387,0.9700893,4.248837
30.45078,112.796,0.6223456,0.9699246,4.242378
30.50126,126.0195,0.7449203,0.9697599,4.242378
30.55207,110.7616,0.830491,0.9697599,4.242378
30.60082,99.31824,0.8651815,0.9699246,4.242378
30.65077,93.72369,0.9230004,0.9699246,4.242378
30.70132,94.86804,0.9808193,0.9697599,4.242378
30.75207,102.1155,1.022447,0.9697599,4.242378
30.80137,103.8956,1.066389,0.9699246,4.242378
30.85032,92.7065,1.094142,0.9697599,4.242378
30.90069,88.63776,1.131147,0.9697599,4.242378
30.95127,85.96764,1.16815,0.9699246,4.242378
31.00154,84.0604,1.175088,0.9699246,4.242378
31.05181,83.29751,1.151961,0.9699246,4.242378
31.10104,82.53461,1.094142,0.9699246,4.235919
31.15036,81.26313,1.017822,0.9699246,4.235919
31.20133,80.50024,0.9669421,0.9697599,4.235919
31.25136,107.8372,0.920687,0.9699246,4.235919
31.30136,120.5521,0.8952476,0.9697599,4.235919
31.35081,104.6585,0.8767453,0.9699246,4.235919
31.40129,94.2323,0.8281785,0.9699246,4.235919
31.45081,82.78893,0.7981132,0.9699246,4.235919
31.50182,85.20473,0.7657344,0.9699246,4.235919
31.55181,97.66531,0.7426077,0.9699246,4.242378
31.6012,100.2083,0.7032912,0.9697599,4.235919
31.6505,100.3354,0.6616621,0.9699246,4.235919
31.70124,82.53461,0.6061566,0.9699246,4.242378
31.75154,80.11879,0.5414,0.9699246,4.235919
31.80151,78.84731,0.4396403,0.9699246,4.235919
31.85033,77.32152,0.3610073,0.9699246,4.235919
31.90133,76.81293,0.2499965,0.9699246,4.235919
31.95133,76.94007,0.1528619,0.9697599,4.242378
32.00133,102.3698,0.09966906,0.9699246,4.235919
32.05118,126.0195,0.04185018,0.9699246,4.235919
32.10071,126.1466,0.0002210998,0.9697599,4.235919
32.15031,123.3493,-0.0622221,0.9699246,4.235919
32.20016,92.96081,-0.1547315,0.9699246,4.235919
32.25234,89.40065,-0.1639826,0.9699246,4.235919
32.30133,96.01237,-0.1894228,0.9700893,4.235919
32.35015,102.1155,-0.2218007,0.9699246,4.22946
32.40134,102.497,-0.235677,0.9699246,4.235919
32.451,88.63776,-0.2472408,0.9697599,4.22946
32.50133,84.44184,-0.2634298,0.9697599,4.22946
32.55128,82.91606,-0.2541786,0.9697599,4.235919
32.60019,79.10161,-0.2865573,0.9699246,4.22946
32.65089,78.59301,-0.2981211,0.9697599,4.22946
32.70013,78.21156,-0.3860044,0.9699246,4.22946
32.75114,77.83012,-0.5108917,0.9699246,4.22946
32.80151,86.34908,-0.5710223,0.9697599,4.22946
32.85012,121.5692,-0.5663971,0.9699246,4.22946
32.90122,127.1638,-0.5247681,0.9699246,4.22946
32.95101,101.3526,-0.5340192,0.9697599,4.22946
33.00193,95.37663,-0.5386444,0.9697599,4.22946
33.05146,94.10515,-0.4831389,0.9699246,4.22946
33.10075,98.30104,-0.4623248,0.9699246,4.22946
33.15115,102.8784,-0.4276335,0.9699246,4.223001
33.20079,104.4042,-0.3536265,0.9699246,4.22946
33.25199,89.0192,-0.2541786,0.9697599,4.22946
33.30159,83.55181,-0.1061638,0.9697599,4.22946
33.35108,81.26313,0.07422893,0.9699246,4.235919
33.40041,80.11879,0.1783012,0.9699246,4.235919
33.45099,79.3559,0.3008759,0.9697599,4.235919
33.50218,78.59301,0.3725711,0.9699246,4.235919
33.55226,79.73734,0.4650796,0.9697599,4.235919
33.60046,97.9196,0.5599015,0.9699246,4.235919
33.65023,125.8923,0.6593495,0.9699246,4.235919
33.70013,124.3665,0.8050509,0.9697599,4.235919
33.75222,99.57254,0.84668,0.9697599,4.235919
33.80188,92.96081,0.8883091,0.9699246,4.235919
33.85053,94.48659,0.9530665,0.9699246,4.235919
33.90048,102.6241,1.001633,0.9697599,4.235919
33.95126,104.7856,1.064077,0.9699246,4.235919
34.00205,95.37663,1.110331,0.9697599,4.235919
34.05132,91.05358,1.154273,0.9699246,4.235919
34.1003,88.7649,1.188964,0.9697599,4.235919
34.15083,85.58618,1.202841,0.9697599,4.235919
34.20029,84.0604,1.216717,0.9699246,4.235919
34.25149,83.55181,1.16815,0.9699246,4.235919
34.30152,83.17036,1.117269,0.9697599,4.22946
34.35022,92.96081,1.073328,0.9699246,4.235919
34.40073,122.3321,1.04095,0.9700893,4.22946
34.45075,118.1362,1.013197,0.9699246,4.235919
34.50151,96.01237,0.9484397,0.9699246,4.235919
34.55211,87.49342,0.9021863,0.9697599,4.22946
34.60049,88.25631,0.8582438,0.9699246,4.235919
34.65045,102.497,0.8143021,0.9697599,4.235919
34.70029,103.7684,0.7611092,0.9699246,4.22946
34.75199,90.29069,0.6824762,0.9699246,4.22946
34.80196,87.87486,0.6339094,0.9697599,4.22946
34.85026,83.67896,0.5760913,0.9697599,4.22946
34.90128,82.91606,0.4974584,0.9699246,4.22946
34.95099,81.64457,0.3956978,0.9697599,4.22946
35.00229,81.00883,0.2777492,0.9697599,4.22946
35.05221,87.49342,0.2014288,0.9697599,4.22946
35.10056,87.49342,0.1621123,0.9697599,4.22946
35.15022,118.2634,0.1297344,0.9699246,4.223001
35.20058,113.4317,0.1089194,0.9699246,4.22946
35.25148,99.95398,0.03722502,0.9697599,4.22946
35.30229,95.24948,0.01872348,0.9697599,4.223001
35.35076,96.13953,0.002534538,0.9699246,4.223001
35.40051,104.0227,-0.01365526,0.9699246,4.22946
35.45055,105.5485,-0.04140798,0.9699246,4.223001
35.50117,92.96081,-0.07841104,0.9697599,4.223001
35.55213,87.11198,-0.1038512,0.9697599,4.223001
35.60076,86.47623,-0.1084772,0.9699246,4.223001
35.65022,84.82329,-0.173233,0.9699246,4.216542
35.70122,83.67896,-0.1292913,0.9697599,4.223001
35.75148,81.26313,-0.2958077,0.9699246,4.223001
35.80151,82.02603,-0.4530737,0.9697599,4.223001
35.85031,97.79247,-0.4923902,0.9697599,4.216542
35.90025,128.0538,-0.4923902,0.9699246,4.216542
35.95049,125.2566,-0.4692626,0.9697599,4.223001
36.00204,106.82,-0.4970153,0.9697599,4.216542
36.05144,103.6413,-0.5108917,0.9697599,4.216542
36.10022,100.9712,-0.4600114,0.9697599,4.216542
36.15105,102.1155,-0.4299461,0.9699246,4.216542
36.20103,105.0399,-0.4068185,0.9699246,4.216542
36.25171,98.80965,-0.388317,0.9699246,4.216542
36.30128,92.19792,-0.3906296,0.9699246,4.216542
36.3507,88.7649,-0.3929422,0.9697599,4.216542
36.4004,86.22193,-0.3536265,0.9699246,4.216542
36.45032,85.20473,-0.3166226,0.9697599,4.210082
36.50156,84.0604,-0.2634298,0.9699246,4.210082
36.5512,83.29751,-0.3420628,0.9699246,4.216542
36.60028,82.78893,-0.4600114,0.9699246,4.210082
36.65109,93.978,-0.4877641,0.9699246,4.216542
36.70116,124.2394,-0.446135,0.9699246,4.210082
36.75201,124.748,-0.31431,0.9697599,4.210082
36.80124,107.8372,-0.177859,0.9699246,4.210082
36.85085,102.497,-0.04372057,0.9699246,4.203623
36.90088,99.44539,0.1528619,0.9697599,4.210082
36.95075,100.7169,0.3286286,0.9699246,4.210082
37.00169,101.8612,0.4465781,0.9699246,4.210082
37.05123,105.6757,0.5760913,0.9697599,4.210082
37.10103,96.52097,0.6778511,0.9697599,4.210082
37.15063,91.18073,0.7796108,0.9699246,4.203623
37.20124,87.87486,0.851306,0.9697599,4.210082
37.25199,85.84048,0.9091232,0.9697599,4.203623
37.30186,85.58618,0.9553783,0.9697599,4.203623
37.35018,84.82329,0.9946948,0.9699246,4.210082
37.40086,83.67896,1.020136,0.9699246,4.203623
37.45071,82.78893,1.043262,0.9697599,4.203623
37.50182,102.497,1.066389,0.9699246,4.203623
37.55186,123.2222,1.089517,0.9697599,4.203623
37.60101,111.0159,1.110331,0.9697599,4.203623
37.65049,100.2083,1.105706,0.9699246,4.203623
37.70124,93.59654,1.112644,0.9699246,4.197164
37.75136,95.24948,1.114958,0.9700893,4.203623
37.80186,104.5313,1.103394,0.9699246,4.203623
37.85036,105.1671,1.077953,0.9699246,4.203623
37.90095,104.0227,1.045575,0.9699246,4.203623
37.95103,88.63776,0.99932,0.9699246,4.203623
38.00167,87.11198,0.9415027,0.9699246,4.197164
38.05173,85.96764,0.8651815,0.9699246,4.203623
38.10044,85.84048,0.8212407,0.9697599,4.203623
38.15027,84.569,0.7217927,0.9697599,4.203623
38.20127,83.17036,0.636222,0.9697599,4.197164
38.25173,84.44184,0.5691528,0.9699246,4.203623
38.30174,120.9335,0.5067087,0.9697599,4.197164
38.35115,120.4249,0.462767,0.9697599,4.197164
38.40111,101.3526,0.3956978,0.9699246,4.197164
38.45076,93.72369,0.2985633,0.9699246,4.197164
38.502,91.18073,0.2546216,0.9697599,4.197164
38.55167,97.79247,0.2407453,0.9697599,4.197164
38.60098,99.82683,0.2129925,0.9697599,4.190705
38.65049,102.8784,0.173676,0.9699246,4.197164
38.70084,87.11198,0.1297344,0.9697599,4.190705
38.75132,85.58618,0.1019816,0.9697599,4.197164
38.80122,85.20473,0.06266515,0.9699246,4.197164
38.85061,82.40748,0.01409746,0.9699246,4.190705
38.90065,81.26313,-0.0229056,0.9699246,4.190705
38.95087,80.11879,-0.1061638,0.9699246,4.190705
39.00182,80.24594,-0.2842439,0.9699246,4.190705
39.05164,87.49342,-0.3443753,0.9699246,4.190705
39.10064,105.8028,-0.3651895,0.9699246,4.190705
39.1506,121.4421,-0.3397502,0.9697599,4.190705
39.20127,105.1671,-0.3790658,0.9699246,4.190705
39.25121,100.3354,-0.4021934,0.9699246,4.190705
39.30214,98.6825,-0.3906296,0.9697599,4.190705
39.35082,100.9712,-0.388317,0.9699246,4.190705
39.40105,102.8784,-0.3836918,0.9697599,4.190705
39.45115,104.0227,-0.3767532,0.9697599,4.190705
39.50235,90.29069,-0.3698155,0.9697599,4.184246
39.55175,86.22193,-0.3559391,0.9699246,4.190705
39.6011,85.20473,-0.3235604,0.9697599,4.184246
39.65048,83.67896,-0.2819313,0.9697599,4.184246
39.70035,82.15317,-0.2056117,0.9699246,4.184246
39.75127,80.62739,-0.173233,0.9699246,4.184246
39.80132,80.11879,-0.1616701,0.9699246,4.184246
39.85084,94.86804,-0.08072449,0.9699246,4.184246
39.90136,123.6036,0.06960291,0.9697599,4.184246
39.95135,120.9335,0.2037413,0.9699246,4.184246
40.0021,108.8544,0.3008759,0.9697599,4.184246
40.05206,99.44539,0.3887601,0.9697599,4.184246
40.10126,98.30104,0.5090221,0.9699246,4.184246
40.15126,100.4626,0.6408471,0.9699246,4.177787
40.20093,103.0055,0.7472329,0.9699246,4.184246
40.25135,104.277,0.7934871,0.9700893,4.177787
40.30127,92.19792,0.8420548,0.9697599,4.177787
40.35106,89.14634,0.8929342,0.9699246,4.177787
40.40107,85.58618,0.9368759,0.9697599,4.177787
40.45126,84.69615,0.9600034,0.9699246,4.177787
40.5022,83.55181,0.9946948,0.9697599,4.177787
40.55173,83.17036,0.9669421,0.9700893,4.177787
40.60046,82.02603,0.9669421,0.9699246,4.177787
40.65125,86.47623,0.9692555,0.9699246,4.171328
40.70126,114.7032,0.9692555,0.9697599,4.171328
40.75223,120.6792,0.9646303,0.9699246,4.171328
40.80157,103.0055,0.9345642,0.9697599,4.177787
40.85071,93.72369,0.8952476,0.9699246,4.171328
40.90146,91.30788,0.8698084,0.9699246,4.171328
40.95126,98.42819,0.8374296,0.9697599,4.171328
41.00221,103.7684,0.7842368,0.9699246,4.171328
41.05126,102.497,0.7171676,0.9697599,4.171328
41.10086,93.59654,0.6431597,0.9697599,4.171328
41.15051,84.69615,0.557589,0.9697599,4.164868
41.20123,83.29751,0.4650796,0.9699246,4.171328
41.25185,82.02603,0.4188254,0.9699246,4.171328
41.30134,81.26313,0.3216908,0.9699246,4.171328
41.35105,80.37309,0.2106799,0.9697599,4.171328
41.40121,85.20473,0.1528619,0.9699246,4.164868
41.45144,120.6792,0.115858,0.9697599,4.171328
41.50125,122.8407,0.07422893,0.9699246,4.164868
41.55233,104.4042,0.009472292,0.9697599,4.164868
41.60121,100.5897,-0.05990952,0.9697599,4.171328
41.65118,92.83366,-0.07609846,0.9697599,4.164868
41.70109,93.85085,-0.08997482,0.9699246,4.164868
41.75247,101.7341,-0.1061638,0.9697599,4.164868
41.80149,103.2598,-0.1524189,0.9697599,4.164868
41.85071,91.05358,-0.1709204,0.9699246,4.164868
41.90059,85.45904,-0.2009857,0.9598774,4.164868
41.95046,82.15317,-0.2634298,0.9598774,4.164868
42.00244,81.26313,-0.31431,0.9600421,4.164868
42.05195,80.11879,-0.3374367,0.9598774,4.164868
42.10071,79.73734,-0.3790658,0.9598774,4.164868
42.15028,78.21156,-0.4692626,0.9597127,4.164868
42.20146,82.15317,-0.540957,0.9598774,4.158409
42.25175,121.1878,-0.5525208,0.9598774,4.158409
42.3015,124.6208,-0.5224555,0.9598774,4.164868
42.35125,106.82,-0.5386444,0.9597127,4.158409
42.40109,99.06393,-0.5663971,0.9600421,4.158409
42.4515,96.90242,-0.5132043,0.9598774,4.158409
42.5025,98.6825,-0.4923902,0.9598774,4.158409
42.55248,102.8784,-0.4785138,0.9597127,4.158409
42.60122,102.497,-0.4530737,0.9597127,4.158409
42.65068,89.2735,-0.4345713,0.9600421,4.158409
42.70148,87.62056,-0.3975682,0.9598774,4.158409
42.75175,84.69615,-0.3119974,0.9598774,4.158409
42.80174,83.29751,-0.2218007,0.9598774,4.158409
42.85103,82.02603,-0.1524189,0.9598774,4.158409
42.90045,80.50024,-0.1385425,0.9600421,4.158409
42.95045,79.99165,-0.07378587,0.9598774,4.158409
43.0017,108.0915,0.06497774,0.9597127,4.158409
43.05129,123.4765,0.2361201,0.9598774,4.158409
43.1007,122.0779,0.3795089,0.9598774,4.158409
43.1505,100.4626,0.4650796,0.9598774,4.158409
43.2005,96.90242,0.5899677,0.9600421,4.15195
43.25168,97.66531,0.7241053,0.9600421,4.15195
43.30149,100.5897,0.8258659,0.9598774,4.15195
43.3507,103.6413,0.8698084,0.9598774,4.158409
43.40079,94.74089,0.9322507,0.9598774,4.15195
43.45067,89.90925,0.983131,0.9600421,4.15195
43.502,88.00201,1.034011,0.9600421,4.15195
43.55149,85.58618,1.068703,0.9598774,4.15195
43.60145,84.82329,1.119583,0.9598774,4.15195
43.65039,84.18755,1.096455,0.9600421,4.15195
43.70033,84.44184,1.096455,0.9598774,4.15195
43.75128,104.5313,1.128833,0.9600421,4.15195
43.8017,121.4421,1.156586,0.9598774,4.15195
43.85032,116.7376,1.172775,0.9598774,4.145491
43.90079,100.2083,1.158899,0.9598774,4.15195
43.95119,92.32506,1.156586,0.9598774,4.15195
44.00249,94.35944,1.14271,0.9598774,4.15195
44.05218,105.1671,1.114958,0.9598774,4.145491
44.10035,105.8028,1.064077,0.9598774,4.145491
44.15149,103.0055,1.015509,0.9598774,4.145491
44.20072,89.78209,0.9692555,0.9598774,4.145491
44.25166,86.22193,0.8929342,0.9598774,4.145491
44.30235,85.20473,0.8212407,0.9598774,4.145491
44.351,83.55181,0.7032912,0.9598774,4.145491
44.40042,83.17036,0.6177204,0.9598774,4.139032
44.45146,91.30788,0.5483387,0.9598774,4.145491
44.50174,122.0779,0.4697056,0.9597127,4.145491
44.552,122.0779,0.404949,0.9597127,4.145491
44.60087,103.0055,0.3124397,0.9598774,4.145491
44.65144,93.72369,0.252309,0.9598774,4.145491
44.70061,92.07076,0.2314941,0.9598774,4.145491
44.75166,101.9884,0.1921776,0.9598774,4.145491
44.80167,104.7856,0.132047,0.9598774,4.139032
44.85033,92.07076,0.09735563,0.9598774,4.145491
44.90044,89.14634,0.05803998,0.9597127,4.139032
44.95109,86.34908,-0.03215679,0.9598774,4.139032
45.00167,84.18755,-0.09922601,0.9598774,4.139032
45.05242,82.91606,-0.1524189,0.9600421,4.139032
45.10148,82.15317,-0.1524189,0.9598774,4.139032
45.15148,82.91606,-0.251866,0.9598774,4.139032
45.20145,116.4833,-0.3258738,0.9598774,4.139032
45.25132,126.7823,-0.3258738,0.9598774,4.139032
45.30241,114.5761,-0.3328116,0.9600421,4.139032
45.35044,105.93,-0.4068185,0.9597127,4.139032
45.40148,103.0055,-0.4183823,0.9598774,4.132572
45.45131,101.7341,-0.3952556,0.9598774,4.139032
45.50201,104.1499,-0.3929422,0.9598774,4.139032
45.55165,105.0399,-0.3906296,0.9598774,4.139032
45.60048,95.37663,-0.3790658,0.9598774,4.139032
45.65144,92.32506,-0.3628769,0.9598774,4.132572
45.70073,89.5278,-0.3351241,0.9598774,4.132572
45.75198,86.34908,-0.3466879,0.9598774,4.132572
45.80198,85.20473,-0.3651895,0.9598774,4.132572
45.8506,84.44184,-0.409132,0.9598774,4.139032
45.90041,84.569,-0.4877641,0.9598774,4.132572
45.95131,96.64812,-0.5178303,0.9600421,4.132572
46.00248,127.1638,-0.4970153,0.9598774,4.132572
46.05245,122.7136,-0.4692626,0.9598774,4.132572
46.10116,109.1087,-0.4738878,0.9598774,4.132572
46.15091,104.5313,-0.4415099,0.9598774,4.132572
46.20095,103.5141,-0.3281864,0.9598774,4.132572
46.2523,103.7684,-0.1963605,0.9598774,4.126113
46.30219,104.7856,-0.02059302,0.9597127,4.132572
46.35073,99.57254,0.1389856,0.9598774,4.126113
46.40126,93.85085,0.2731231,0.9600421,4.132572
46.45147,91.05358,0.4165128,0.9598774,4.126113
46.50215,88.5106,0.5483387,0.9600421,4.126113
46.55172,87.23911,0.6639747,0.9597127,4.126113
46.60124,85.71333,0.7749856,0.9598774,4.126113
46.65045,84.82329,0.8027383,0.9598774,4.126113
46.70129,83.67896,0.8397422,0.9598774,4.126113
46.75139,93.85085,0.8721201,0.9598774,4.126113
46.80141,124.1122,0.920687,0.9598774,4.126113
46.85059,121.8235,0.9738806,0.9598774,4.126113
46.90118,106.3114,0.9970082,0.9597127,4.126113
46.95045,99.44539,1.027073,0.9598774,4.119654
47.00172,99.19109,1.103394,0.9598774,4.126113
47.05219,104.0227,1.16815,0.9598774,4.126113
47.10073,105.6757,1.193589,0.9598774,4.126113
47.15046,107.3286,1.205153,0.9597127,4.119654
47.20145,93.34225,1.216717,0.9598774,4.126113
47.25145,90.67213,1.22828,0.9598774,4.126113
47.30253,89.0192,1.216717,0.9598774,4.126113
47.3511,87.23911,1.198216,0.9597127,4.119654
47.40065,86.47623,1.105706,0.9598774,4.119654
47.45051,85.20473,1.006259,0.9598774,4.119654
47.50243,91.30788,0.9253138,0.9598774,4.119654
47.55198,117.2462,0.851306,0.9597127,4.119654
47.60044,122.5864,0.7981132,0.9598774,4.119654
47.65141,101.4798,0.6963526,0.9598774,4.119654
47.7011,92.96081,0.620033,0.9598774,4.119654
47.75195,91.05358,0.5714653,0.9597127,4.119654
47.80184,100.3354,0.5067087,0.9598774,4.119654
47.85059,103.0055,0.4303891,0.9598774,4.119654
47.90129,104.0227,0.3725711,0.9597127,4.113195
47.95072,91.18073,0.3078145,0.9597127,4.119654
48.00164,85.96764,0.252309,0.9597127,4.119654
48.05185,83.67896,0.1875524,0.9598774,4.113195
48.10138,82.53461,0.1135454,0.9597127,4.113195
48.15125,82.15317,0.05110138,0.9598774,4.113195
48.20097,81.51743,-0.03446938,0.9598774,4.113195
48.25156,82.15317,-0.1246661,0.9598774,4.113195
48.30228,114.9575,-0.2125495,0.9598774,4.113195
48.35159,127.5452,-0.2379896,0.9598774,4.113195
48.40157,120.4249,-0.2634298,0.9598774,4.113195
48.45158,107.0743,-0.3698155,0.9600421,4.113195
48.50256,102.1155,-0.3790658,0.9598774,4.106736
48.55151,100.9712,-0.3605643,0.9597127,4.113195
48.60109,102.8784,-0.3605643,0.9598774,4.106736
48.65093,104.4042,-0.3582517,0.9598774,4.113195
48.70038,94.61374,-0.3605643,0.9598774,4.106736
48.75171,90.67213,-0.3628769,0.9598774,4.113195
48.80136,86.85767,-0.3998808,0.9598774,4.113195
48.85084,85.20473,-0.4299461,0.9597127,4.106736
48.9004,83.67896,-0.3952556,0.9598774,4.106736
48.95121,82.91606,-0.4600114,0.9597127,4.106736
49.00208,82.15317,-0.5108917,0.9598774,4.113195
49.05179,88.38345,-0.5663971,0.9598774,4.106736
49.10121,104.4042,-0.5525208,0.9597127,4.106736
49.15092,127.2909,-0.4530737,0.9598774,4.113195
49.20151,110.7616,-0.3628769,0.9598774,4.106736
49.25204,106.3114,-0.251866,0.9598774,4.113195
49.30204,101.7341,-0.02521904,0.9598774,4.106736
49.35041,101.4798,0.1551745,0.9597127,4.106736
49.40068,104.277,0.2869995,0.9598774,4.106736
49.45131,106.0571,0.4396403,0.9598774,4.106736
49.5024,93.72369,0.5737779,0.9598774,4.106736
49.55232,91.18073,0.7264187,0.9598774,4.106736
49.60073,87.49342,0.8073635,0.9598774,4.106736
49.65142,86.09478,0.8698084,0.9597127,4.100276
49.70092,85.33189,0.9183752,0.9598774,4.100276
49.75143,84.82329,0.946128,0.9598774,4.100276
49.80214,84.0604,0.9715672,0.9598774,4.106736
49.85077,103.7684,1.001633,0.9598774,4.100276
49.90068,127.2909,1.043262,0.9597127,4.100276
49.95116,122.4593,1.108019,0.9598774,4.100276
50.00243,104.0227,1.149647,0.9597127,4.100276
50.05241,98.1739,1.191277,0.9598774,4.100276
50.10046,96.13953,1.232906,0.9598774,4.100276
50.15079,104.9128,1.260658,0.9598774,4.100276
50.20121,108.3458,1.274535,0.9598774,4.100276
50.25142,103.0055,1.286099,0.9598774,4.100276
50.30239,94.61374,1.293038,0.9598774,4.100276
50.35088,90.29069,1.290724,0.9597127,4.093818
50.40069,89.5278,1.279161,0.9598774,4.100276
50.45062,88.38345,1.22828,0.9598774,4.093818
50.5014,86.73053,1.114958,0.9598774,4.093818
50.55242,88.63776,1.045575,0.9597127,4.093818
50.60068,120.1706,0.9785058,0.9597127,4.093818
50.65042,123.9851,0.8883091,0.9598774,4.093818
50.70041,111.0159,0.8096769,0.9598774,4.093818
50.75212,100.3354,0.7194802,0.9597127,4.093818
50.80166,92.32506,0.6616621,0.9598774,4.087358
50.85046,96.90242,0.6061566,0.9598774,4.087358
50.90046,106.4386,0.5367749,0.9598774,4.087358
50.9514,106.5657,0.4697056,0.9598774,4.093818
51.00139,91.18073,0.421138,0.9600421,4.087358
51.05252,89.14634,0.3586948,0.9598774,4.093818
51.10046,88.5106,0.2546216,0.9597127,4.087358
51.15182,86.73053,0.189865,0.9598774,4.087358
51.20042,85.33189,0.04185018,0.9598774,4.087358
51.25144,84.569,-0.1454803,0.9597127,4.087358
51.30226,97.66531,-0.2125495,0.9598774,4.087358
51.35075,130.5968,-0.2472408,0.9598774,4.087358
51.40144,128.8167,-0.2726809,0.9598774,4.087358
51.4511,109.4901,-0.3189352,0.9597127,4.087358
51.50166,106.82,-0.3582517,0.9598774,4.087358
51.55143,104.5313,-0.3536265,0.9598774,4.087358
51.60095,105.93,-0.3628769,0.9598774,4.087358
51.6509,106.6929,-0.3744406,0.9598774,4.087358
51.7009,99.95398,-0.3790658,0.9598774,4.087358
51.75215,94.48659,-0.3813792,0.9598774,4.087358
51.80149,92.83366,-0.3559391,0.9598774,4.087358
51.85079,91.43503,-0.3721281,0.9597127,4.087358
51.90063,89.90925,-0.3998808,0.9598774,4.087358
51.95078,88.38345,-0.4692626,0.9597127,4.087358
52.00165,88.38345,-0.5340192,0.9597127,4.087358
52.05162,104.5313,-0.5710223,0.9598774,4.087358
52.10077,126.1466,-0.5640845,0.9600421,4.080899
52.15079,117.2462,-0.5617719,0.9598774,4.087358
52.20146,110.7616,-0.5802734,0.9598774,4.087358
52.25172,107.0743,-0.5340192,0.9597127,4.080899
52.30249,105.0399,-0.4114446,0.9598774,4.087358
52.35106,105.6757,-0.2680549,0.9598774,4.080899
52.40063,107.2015,-0.08303706,0.9598774,4.080899
52.45041,100.9712,0.09504304,0.9598774,4.080899
52.50229,94.86804,0.2430578,0.9598774,4.087358
52.55227,91.81647,0.3980104,0.9597127,4.080899
52.60148,90.67213,0.5182725,0.9598774,4.080899
52.65102,89.14634,0.6454732,0.9598774,4.080899
52.70089,87.87486,0.7194802,0.9598774,4.080899
52.75163,86.34908,0.7680478,0.9598774,4.080899
52.8019,88.00201,0.8189272,0.9598774,4.080899
52.85102,122.0779,0.8698084,0.9597127,4.080899
52.90161,128.6896,0.9230004,0.9597127,4.07444
52.95139,110.253,0.9785058,0.9598774,4.080899
53.00202,106.3114,1.008572,0.9598774,4.080899
53.05202,100.3354,1.061764,0.9597127,4.07444
53.10161,100.9712,1.12652,0.9598774,4.07444
53.15118,107.3286,1.193589,0.9597127,4.080899
53.20075,107.0743,1.225969,0.9598774,4.07444
53.25189,100.5897,1.249094,0.9598774,4.07444
53.30263,96.39381,1.272222,0.9598774,4.07444
53.35046,91.30788,1.286099,0.9597127,4.07444
53.40068,89.40065,1.302288,0.9598774,4.080899
53.45062,88.63776,1.3046,0.9598774,4.07444
53.50263,87.87486,1.299975,0.9597127,4.07444
53.55174,88.63776,1.297663,0.9597127,4.07444
53.60114,116.1019,1.293038,0.9598774,4.07444
53.65089,124.2394,1.283786,0.9598774,4.07444
53.70066,114.3218,1.253721,0.9598774,4.07444
53.75146,98.80965,1.205153,0.9597127,4.07444
53.8021,92.96081,1.172775,0.9597127,4.067981
53.85089,103.7684,1.138084,0.9598774,4.07444
53.90074,106.4386,1.082578,0.9597127,4.067981
53.95076,106.0571,1.020136,0.9598774,4.07444
54.00151,91.56216,0.9692555,0.9598774,4.067981
54.05206,89.2735,0.8929342,0.9598774,4.067981
54.10062,88.00201,0.7958006,0.9597127,4.067981
54.15136,86.85767,0.7264187,0.9597127,4.07444
54.20148,85.33189,0.5784039,0.9597127,4.07444
54.2519,84.95044,0.4720182,0.9598774,4.067981
54.30172,102.3698,0.3933852,0.9597127,4.067981
54.35077,127.2909,0.2985633,0.9597127,4.067981
54.40059,126.7823,0.2106799,0.9598774,4.067981
54.45064,103.7684,0.08116668,0.9598774,4.067981
54.50201,98.42819,-0.002091485,0.9598774,4.067981
54.55174,97.9196,-0.06453468,0.9598774,4.067981
54.60156,103.7684,-0.1501063,0.9597127,4.067981
54.65139,105.5485,-0.2194881,0.9597127,4.067981
54.70125,102.6241,-0.2796187,0.9597127,4.067981
54.75258,90.29069,-0.3212478,0.9597127,4.067981
54.80162,86.47623,-0.3166226,0.9598774,4.061522
54.85086,84.82329,-0.3443753,0.9597127,4.061522
54.90089,84.0604,-0.3513131,0.9598774,4.061522
54.95127,83.42466,-0.4600114,0.9598774,4.067981
55.00165,84.0604,-0.5548334,0.9597127,4.061522
55.0527,106.82,-0.5872121,0.9598774,4.061522
55.10151,125.638,-0.5848995,0.9597127,4.061522
55.15155,118.5177,-0.5756483,0.9597127,4.061522
55.201,107.9643,-0.6219026,0.9597127,4.061522
55.25188,105.5485,-0.6219026,0.9597127,4.061522
55.30155,103.5141,-0.5478956,0.9598774,4.067981
55.35101,103.387,-0.4692626,0.9598774,4.061522
55.40069,104.5313,-0.330499,0.9598774,4.061522
55.45126,98.80965,-0.1200401,0.9597127,4.061522
55.50165,94.10515,0.07654151,0.9598774,4.061522
55.55175,89.14634,0.2499965,0.9598774,4.061522
55.60055,87.23911,0.3679451,0.9598774,4.061522
55.6517,86.47623,0.5090221,0.9598774,4.061522
55.70055,85.20473,0.562215,0.9598774,4.061522
55.75205,84.0604,0.6339094,0.9597127,4.055062
55.80202,98.6825,0.7079164,0.9597127,4.061522
55.8517,125.638,0.8119895,0.9597127,4.061522
55.90169,124.8751,0.8698084,0.9597127,4.061522
55.9507,108.3458,0.9183752,0.9597127,4.061522
56.00188,103.7684,0.9576917,0.9598774,4.055062
56.05263,99.06393,1.020136,0.9600421,4.055062
56.10125,98.6825,1.084892,0.9598774,4.061522
56.15059,102.2427,1.149647,0.9598774,4.055062
56.20072,103.5141,1.184339,0.9597127,4.055062
56.25254,91.30788,1.21903,0.9598774,4.055062
56.30242,88.63776,1.239844,0.9598774,4.055062
56.35117,86.47623,1.251408,0.9598774,4.055062
56.40103,84.82329,1.265285,0.9598774,4.055062
56.45167,84.44184,1.262972,0.9598774,4.055062
56.50217,83.29751,1.249094,0.9598774,4.055062
56.55217,85.58618,1.235219,0.9699246,4.048604
56.60141,112.6688,1.195902,0.9697599,4.048604
56.65062,120.0435,1.151961,0.9697599,4.048604
56.7005,103.7684,1.082578,0.9697599,4.055062
56.75117,93.34225,1.015509,0.9699246,4.048604
56.80058,88.25631,1.001633,0.9700893,4.055062
56.85119,92.19792,0.9646303,0.9697599,4.055062
56.902,99.95398,0.9160618,0.9697599,4.048604
56.95076,100.3354,0.8281785,0.9697599,4.048604
57.0015,87.49342,0.7611092,0.9697599,4.048604
57.05085,83.67896,0.6709124,0.9697599,4.048604
57.10141,81.00883,0.5298362,0.9697599,4.048604
57.15262,79.3559,0.4419529,0.9699246,4.048604
57.20137,78.46587,0.3332546,0.9598774,4.055062
57.25095,77.95727,0.2430578,0.9598774,4.048604
57.30067,89.90925,0.1621123,0.9597127,4.048604
57.35066,120.9335,0.1019816,0.9598774,4.048604
57.40185,122.0779,0.02566124,0.9598774,4.048604
57.45136,98.80965,-0.08072449,0.9597127,4.048604
57.50141,94.86804,-0.1755464,0.9597127,4.048604
57.55134,91.81647,-0.2264258,0.9598774,4.042144
57.60086,94.10515,-0.2865573,0.9598774,4.048604
57.65244,99.44539,-0.3466879,0.9597127,4.042144
57.70113,99.95398,-0.3767532,0.9600421,4.042144
57.75061,87.23911,-0.4068185,0.9597127,4.042144
57.80125,80.88168,-0.4553862,0.9600421,4.042144
57.85066,78.33871,-0.4808264,0.9598774,4.042144
57.90266,78.59301,-0.4692626,0.9699246,4.042144
57.9514,78.21156,-0.5941498,0.9699246,4.042144
58.00142,79.3559,-0.698223,0.9697599,4.042144
58.05112,103.7684,-0.7467898,0.9697599,4.042144
58.10095,121.6964,-0.7537284,0.9697599,4.042144
58.15241,111.7788,-0.7514158,0.9697599,4.042144
58.20113,104.5313,-0.7907323,0.9697599,4.042144
58.25086,98.30104,-0.7976701,0.9697599,4.035685
58.30053,97.28386,-0.7306009,0.9697599,4.042144
58.35141,97.66531,-0.698223,0.9697599,4.042144
58.40239,99.44539,-0.6612191,0.9697599,4.035685
58.45144,94.99519,-0.5710223,0.9699246,4.035685
58.50114,86.73053,-0.3836918,0.9697599,4.035685
58.55087,85.20473,-0.1385425,0.9597127,4.035685
58.60089,83.04321,0.06960291,0.9598774,4.035685
58.65171,80.88168,0.1621123,0.9598774,4.035685
58.70163,79.86449,0.2268689,0.9598774,4.042144
58.7517,87.49342,0.330942,0.9598774,4.035685
58.80141,117.7548,0.4303891,0.9598774,4.035685
58.85131,124.3665,0.5784039,0.9597127,4.035685
58.90213,113.0503,0.6732259,0.9598774,4.035685
58.95161,101.7341,0.7217927,0.9597127,4.035685
59.0009,98.04675,0.8027383,0.9598774,4.035685
59.05145,97.53816,0.8906225,0.9597127,4.029226
59.10073,101.4798,0.9785058,0.9598774,4.029226
59.15161,104.5313,1.029386,0.9597127,4.035685
59.20107,92.96081,1.064077,0.9598774,4.029226
59.25086,91.05358,1.094142,0.9597127,4.035685
59.30066,87.49342,1.114958,0.9598774,4.029226
59.35065,85.58618,1.138084,0.9597127,4.029226
59.40233,84.44184,1.154273,0.9598774,4.035685
59.45087,86.73053,1.161211,0.9598774,4.029226
59.50166,104.7856,1.170463,0.9598774,4.029226
59.55165,122.4593,1.198216,0.9597127,4.029226
59.60052,110.253,1.212091,0.9598774,4.029226
59.65273,98.55534,1.214405,0.9598774,4.029226
59.70091,90.54498,1.21903,0.9598774,4.029226
59.75125,95.75809,1.202841,0.9598774,4.029226
59.80086,104.4042,1.186652,0.9600421,4.029226
59.85174,105.2942,1.151961,0.9597127,4.029226
59.90224,94.10515,1.110331,0.9598774,4.022767
59.95077,88.7649,1.057139,0.9598774,4.029226
60.00069,86.34908,1.001633,0.9598774,4.029226
60.05109,85.71333,0.8975611,0.9600421,4.022767
60.10165,84.44184,0.8004257,0.9597127,4.022767
60.15209,87.62056,0.7264187,0.9598774,4.022767
60.20148,119.4077,0.6408471,0.9597127,4.022767
60.2514,123.9851,0.5853417,0.9598774,4.029226
60.30091,107.2015,0.5205851,0.9597127,4.022767
60.35089,99.44539,0.4488907,0.9597127,4.022767
60.40213,93.46941,0.3795089,0.9597127,4.022767
60.45173,98.1739,0.330942,0.9598774,4.016308
60.50108,102.6241,0.2869995,0.9598774,4.022767
60.55056,105.2942,0.2314941,0.9597127,4.022767
60.60077,91.43503,0.1783012,0.9597127,4.022767
60.65185,89.78209,0.1181706,0.9597127,4.022767
60.701,87.87486,0.08116668,0.9597127,4.022767
60.7514,85.45904,-0.03446938,0.9598774,4.022767
60.80112,84.569,-0.2934951,0.9597127,4.016308
60.85077,88.63776,-0.446135,0.9598774,4.022767
60.90211,125.1294,-0.4854515,0.9597127,4.022767
60.95123,129.8339,-0.5016405,0.9597127,4.016308
61.00123,113.0503,-0.545583,0.9598774,4.016308
61.05112,108.3458,-0.6057136,0.9598774,4.016308
61.10159,106.3114,-0.6149648,0.9597127,4.016308
61.15181,104.1499,-0.5964624,0.9598774,4.016308
61.20064,105.1671,-0.6010885,0.9597127,4.016308
61.25086,106.0571,-0.6149648,0.9598774,4.022767
61.30152,97.53816,-0.6311538,0.9597127,4.016308
61.3511,92.57936,-0.6057136,0.9597127,4.016308
61.4021,90.92643,-0.6242151,0.9597127,4.016308
61.45072,88.38345,-0.5525208,0.9597127,4.016308
61.50168,87.49342,-0.6797206,0.9597127,4.016308
61.55147,87.23911,-0.756041,0.959548,4.016308
61.60112,105.6757,-0.7884189,0.9597127,4.016308
61.65155,130.9782,-0.7837937,0.9597127,4.016308
61.70132,127.9267,-0.7629796,0.9598774,4.016308
61.75177,111.0159,-0.7745425,0.9597127,4.016308
61.80109,108.0915,-0.7028481,0.9597127,4.016308
61.85088,106.1843,-0.4970153,0.9598774,4.016308
61.90196,107.0743,-0.2611172,0.9597127,4.009848
61.95136,107.5829,-0.0229056,0.9597127,4.009848
62.00163,103.1327,0.1436107,0.9597127,4.009848
62.05064,97.15671,0.289313,0.9597127,4.009848
62.10174,96.01237,0.4327017,0.9598774,4.009848
62.15276,91.94361,0.5830291,0.9598774,4.016308
62.20155,93.85085,0.6570361,0.9597127,4.009848
62.25164,96.52097,0.7171676,0.9598774,4.009848
62.30094,94.10515,0.772673,0.9597127,4.009848
62.35163,91.05358,0.8143021,0.9600421,4.009848
62.40182,112.796,0.8744336,0.9598774,4.009848
62.45155,130.724,0.9507531,0.9597127,4.009848
62.50153,128.0538,1.017822,0.9597127,4.009848
62.55162,107.2015,1.054825,0.9597127,4.009848
62.60163,105.1671,1.098767,0.9597127,4.009848
62.65265,103.8956,1.145022,0.9597127,4.003389
62.70119,105.2942,1.1774,0.9598774,4.009848
62.75084,108.8544,1.202841,0.9598774,4.003389
62.80152,99.19109,1.221342,0.9598774,4.003389
62.85075,95.37663,1.22828,0.9598774,4.003389
62.90158,92.57936,1.22828,0.9597127,4.003389
62.95135,90.67213,1.212091,0.9598774,4.003389
63.00112,89.5278,1.188964,0.9600421,4.003389
63.05163,88.7649,1.110331,0.9598774,4.003389
63.10158,88.25631,1.022447,0.9597127,4.003389
63.1525,100.3354,0.9322507,0.9597127,4.003389
63.20086,125.1294,0.8744336,0.9598774,4.003389
63.25134,122.4593,0.8143021,0.9597127,4.003389
63.30075,102.2427,0.710229,0.9597127,4.003389
63.35135,92.57936,0.6385345,0.9598774,4.003389
63.40234,94.2323,0.5714653,0.9598774,3.99693
63.45115,104.7856,0.5252111,0.9597127,3.99693
63.50116,105.1671,0.462767,0.9597127,3.99693
63.5518,104.6585,0.4026364,0.9598774,4.003389
63.60171,90.41783,0.3448184,0.9598774,3.99693
63.65231,88.5106,0.2823744,0.9598774,3.99693
63.70096,85.96764,0.1991162,0.9597127,3.99693
63.7513,85.33189,0.1274218,0.9598774,3.99693
63.80075,84.569,0.02566124,0.9597127,3.99693
63.85117,83.29751,-0.1454803,0.9598774,3.99693
63.90232,90.67213,-0.2888699,0.9598774,3.99693
63.95164,121.6964,-0.3582517,0.9598774,3.99693
64.00095,128.3081,-0.3767532,0.9597127,3.99693
64.051,107.9643,-0.4276335,0.9598774,3.99693
64.10096,106.6929,-0.5016405,0.9597127,3.99693
64.15275,101.2255,-0.4900776,0.9598774,3.99693
64.20071,101.4798,-0.4877641,0.9598774,3.99693
64.25058,102.6241,-0.4923902,0.9597127,3.99693
64.30128,104.5313,-0.5108917,0.9598774,3.990471
64.35131,93.34225,-0.5293932,0.9597127,3.990471
64.40207,89.5278,-0.5617719,0.9597127,3.99693
64.45058,88.00201,-0.5039539,0.9598774,3.990471
64.5007,85.71333,-0.5039539,0.9598774,3.990471
64.55132,85.20473,-0.4970153,0.9597127,3.990471
64.60059,83.67896,-0.5872121,0.9597127,3.990471
64.65232,83.93326,-0.6288412,0.9598774,3.99693
64.70061,94.10515,-0.6635317,0.9597127,3.990471
64.75105,127.9267,-0.6519679,0.9598774,3.990471
64.8016,124.4937,-0.6357789,0.9598774,3.990471
64.85107,105.6757,-0.6380915,0.9597127,3.984012
64.90228,103.0055,-0.5502082,0.9600421,3.990471
64.95108,100.9712,-0.3698155,0.9598774,3.990471
65.0017,103.387,-0.1871094,0.9598774,3.990471
65.05091,104.5313,-0.0229056,0.9597127,3.984012
65.10095,103.387,0.1042942,0.9598774,3.984012
65.15243,90.54498,0.2245563,0.9598774,3.990471
65.20066,88.00201,0.347131,0.9598774,3.984012
65.25182,85.45904,0.4766434,0.9597127,3.984012
65.3016,84.82329,0.5784039,0.9600421,3.984012
65.35155,84.569,0.6431597,0.9597127,3.984012
65.4017,83.29751,0.6917274,0.9598774,3.984012
65.45169,82.66177,0.7333565,0.9597127,3.984012
65.50133,95.88522,0.7772982,0.9597127,3.984012
65.55155,126.4009,0.8374296,0.9597127,3.984012
65.60133,119.2806,0.9091232,0.9597127,3.984012
65.65233,103.2598,0.9415027,0.9598774,3.984012
65.70068,96.52097,1.003945,0.9598774,3.984012
65.75155,95.50377,1.054825,0.9598774,3.984012
65.80106,103.5141,1.084892,0.9597127,3.977553
65.85069,105.6757,1.114958,0.9598774,3.984012
65.90257,98.04675,1.140397,0.9598774,3.984012
65.95105,91.43503,1.156586,0.9598774,3.977553
66.00186,88.89205,1.175088,0.9597127,3.984012
66.05135,86.34908,1.186652,0.9597127,3.977553
66.10158,85.71333,1.191277,0.9597127,3.977553
66.15166,84.569,1.165836,0.9598774,3.977553
66.20097,83.80611,1.140397,0.9598774,3.977553
66.25118,87.62056,1.101081,0.9598774,3.977553
66.30153,122.205,1.036325,0.9597127,3.977553
66.35091,122.205,0.9923831,0.9597127,3.971093
66.40166,100.7169,0.8975611,0.9597127,3.977553
66.45183,88.5106,0.835117,0.9598774,3.977553
66.50182,89.2735,0.7842368,0.9597127,3.977553
66.55182,101.0983,0.7287313,0.9598774,3.977553
66.60161,104.1499,0.6431597,0.9598774,3.977553
66.65257,91.43503,0.5599015,0.9598774,3.971093
66.70134,88.63776,0.4928323,0.9597127,3.971093
66.75134,83.80611,0.4003238,0.9598774,3.977553
66.80186,82.40748,0.347131,0.9598774,3.971093
66.85136,81.13599,0.2569342,0.9597127,3.971093
66.90273,80.88168,0.1274218,0.9598774,3.977553
66.95138,85.45904,0.05110138,0.9597127,3.971093
67.00066,122.5864,-0.04372057,0.9600421,3.971093
67.05144,127.4181,-0.1223536,0.9597127,3.971093
67.1009,124.8751,-0.251866,0.9597127,3.971093
67.15186,100.0811,-0.4415099,0.9597127,3.971093
67.20155,95.75809,-0.4854515,0.9598774,3.971093
67.25106,98.9368,-0.5155168,0.9597127,3.971093
67.30106,102.7513,-0.5478956,0.9597127,3.971093
67.3507,105.6757,-0.5687097,0.9598774,3.971093
67.40237,93.08795,-0.5895247,0.9597127,3.971093
67.45085,86.85767,-0.5687097,0.9597127,3.964634
67.50096,84.82329,-0.5687097,0.9598774,3.964634
67.55098,83.55181,-0.4877641,0.9597127,3.964634
67.60171,82.53461,-0.6242151,0.9598774,3.964634
67.65227,81.26313,-0.7652922,0.9598774,3.964634
67.70147,87.74771,-0.8901795,0.9597127,3.964634
67.75153,126.4009,-0.9734376,0.9597127,3.964634
67.80118,130.9782,-0.966499,0.9597127,3.964634
67.85098,107.5829,-1.031256,0.9598774,3.964634
67.9017,104.277,-1.151518,0.9598774,3.964634
67.95118,102.6241,-1.163082,0.9597127,3.964634
68.00133,103.5141,-1.167707,0.9598774,3.964634
68.05111,103.8956,-1.174645,0.9598774,3.958175
68.10102,106.6929,-1.183896,0.9597127,3.958175
68.15217,93.978,-1.190834,0.9597127,3.964634
68.20179,90.54498,-1.165394,0.9597127,3.964634
68.25151,87.87486,-1.181583,0.9597127,3.958175
68.30144,85.84048,-1.121452,0.9597127,3.958175
68.35093,85.07759,-1.197772,0.9598774,3.958175
68.40193,85.07759,-1.442921,0.9597127,3.958175
68.45145,93.59654,-1.389728,0.9598774,3.958175
68.50085,131.2325,-1.274092,0.9598774,3.958175
68.55184,125.7652,-1.012754,0.9597127,3.958175
68.60138,107.5829,-0.7676048,0.9598774,3.958175
68.65231,102.2427,-0.4299461,0.9598774,3.958175
68.70093,100.5897,-0.08072449,0.9598774,3.951716
68.75139,103.2598,0.173676,0.9597127,3.958175
68.80151,106.1843,0.3887601,0.9597127,3.951716
68.8513,105.4214,0.5205851,0.9598774,3.951716
68.9023,93.34225,0.6246582,0.9598774,3.951716
68.95093,91.30788,0.714855,0.9598774,3.958175
69.00164,88.25631,0.7934871,0.9597127,3.951716
69.05135,87.23911,0.8998728,0.9600421,3.951716
69.1008,86.60338,0.9183752,0.9597127,3.951716
69.15205,86.22193,0.9438145,0.9598774,3.951716
69.20127,104.5313,0.9808193,0.9597127,3.951716
69.2518,128.8167,1.010884,0.9598774,3.951716
69.30132,126.1466,1.054825,0.9597127,3.951716
69.35149,104.6585,1.094142,0.9597127,3.951716
69.40267,97.28386,1.140397,0.9597127,3.945257
69.45081,95.88522,1.170463,0.9598774,3.951716
69.50082,106.4386,1.184339,0.9597127,3.945257
69.55153,108.0915,1.193589,0.9597127,3.945257
69.60153,106.0571,1.246783,0.9597127,3.945257
69.6523,91.81647,1.274535,0.9598774,3.951716
69.70104,89.0192,1.242158,0.9597127,3.945257
69.75105,87.49342,1.200528,0.9597127,3.945257
69.80156,86.22193,1.080266,0.9597127,3.945257
69.85104,86.09478,0.9970082,0.9597127,3.945257
69.90266,94.10515,0.9230004,0.9598774,3.945257
69.95104,122.7136,0.8397422,0.9597127,3.951716
70.00109,126.528,0.7194802,0.9598774,3.945257
70.05187,99.19109,0.5599015,0.9600421,3.945257
70.10133,95.88522,0.478956,0.9598774,3.945257
70.15209,92.57936,0.4072616,0.9598774,3.938797
70.20097,102.8784,0.3494436,0.9598774,3.945257
70.25104,106.6929,0.2800618,0.9597127,3.945257
70.30097,102.7513,0.2176177,0.9598774,3.945257
70.35091,91.94361,0.1574871,0.9598774,3.945257
70.40278,88.00201,0.07654151,0.9598774,3.945257
70.45121,86.22193,-0.006716654,0.9598774,3.938797
70.50096,85.20473,-0.08534965,0.9597127,3.938797
70.55092,83.67896,-0.2611172,0.9598774,3.945257
70.60078,92.96081,-0.3952556,0.9598774,3.938797
70.65255,125.8923,-0.46695,0.9598774,3.938797
70.70101,126.0195,-0.4808264,0.9597127,3.938797
70.75108,107.71,-0.5548334,0.9597127,3.938797
70.80116,103.8956,-0.6635317,0.9598774,3.938797
70.85093,101.3526,-0.6519679,0.9598774,3.938797
70.90263,105.1671,-0.6635317,0.9597127,3.932338
70.95078,105.2942,-0.6797206,0.9598774,3.938797
71.00094,104.6585,-0.682034,0.9598774,3.938797
71.05177,95.24948,-0.6866592,0.9598774,3.938797
71.10108,92.96081,-0.6658442,0.9597127,3.938797
71.15232,89.14634,-0.6704702,0.9597127,3.938797
71.20102,87.23911,-0.7097868,0.9598774,3.932338
71.25095,85.96764,-0.7837937,0.9598774,3.932338
71.30151,88.12916,-0.8439243,0.9598774,3.932338
71.35124,116.4833,-0.7999827,0.9598774,3.932338
71.40176,131.9954,-0.6242151,0.9597127,3.932338
71.451,118.8991,-0.3836918,0.9598774,3.932338
71.50114,108.9815,-0.1709204,0.9598774,3.932338
71.55114,106.3114,0.05341396,0.9598774,3.932338
71.60161,103.8956,0.2153051,0.9598774,3.932338
71.65228,106.1843,0.3633199,0.9600421,3.932338
71.70193,107.3286,0.5136473,0.9598774,3.932338
71.75078,95.63092,0.6385345,0.9598774,3.932338
71.80135,92.96081,0.7217927,0.9598774,3.932338
71.85076,91.68932,0.8073635,0.9600421,3.932338
71.90205,90.03638,0.8836839,0.9598774,3.925879
71.95153,88.5106,0.9368759,0.9598774,3.925879
72.00087,87.11198,0.9854444,0.9597127,3.925879
72.05124,88.63776,1.022447,0.9598774,3.925879
72.10078,96.26666,1.084892,0.9598774,3.925879
72.15191,123.6036,1.128833,0.9597127,3.91942
72.20161,113.686,1.163525,0.9597127,3.925879
72.25159,103.8956,1.175088,0.9598774,3.925879
72.30129,100.0811,1.209778,0.9597127,3.925879
72.35075,101.2255,1.232906,0.9598774,3.925879
72.40178,107.5829,1.235219,0.9597127,3.925879
72.451,108.6001,1.225969,0.9597127,3.925879
72.50149,96.39381,1.198216,0.9598774,3.91942
72.55149,93.46941,1.147336,0.9598774,3.91942
72.60107,89.90925,1.087203,0.9597127,3.91942
72.652,88.25631,1.020136,0.9597127,3.91942
72.70174,88.00201,0.8975611,0.9598774,3.925879
72.75169,87.62056,0.8119895,0.9598774,3.91942
72.80137,92.96081,0.7333565,0.9597127,3.91942
72.85088,123.7308,0.636222,0.9597127,3.91942
72.9027,123.6036,0.5645276,0.9597127,3.91942
72.95134,102.497,0.462767,0.9598774,3.91942
73.0013,95.88522,0.4118876,0.9597127,3.91942
73.05124,95.88522,0.3540687,0.9598774,3.91942
73.10127,102.497,0.2962507,0.9598774,3.912961
73.15233,107.4557,0.2361201,0.9597127,3.91942
73.20104,107.2015,0.1759886,0.9597127,3.91942
73.25172,91.56216,0.08579271,0.9598774,3.912961
73.30087,87.87486,0.002534538,0.9598774,3.91942
73.35178,86.22193,-0.07147329,0.9598774,3.912961
73.40234,84.95044,-0.1801716,0.9597127,3.912961
73.45106,84.569,-0.4877641,0.9598774,3.912961
73.50124,86.73053,-0.6473427,0.9598774,3.91942
73.55112,107.3286,-0.7329134,0.9697599,3.912961
73.60103,131.7411,-0.7606662,0.9699246,3.91942
73.65179,113.1774,-0.8369866,0.9699246,3.912961
73.70177,109.1087,-0.9850014,0.9697599,3.912961
73.75157,106.82,-1.010442,0.9697599,3.912961
73.80157,104.9128,-0.9734376,0.9699246,3.912961
73.85132,105.5485,-0.9688125,0.9699246,3.912961
73.90203,106.82,-0.9456849,0.9699246,3.912961
73.95173,95.12233,-0.9248699,0.9697599,3.912961
74.00099,93.34225,-0.9202448,0.9699246,3.912961
74.05157,90.92643,-0.8786157,0.9699246,3.906502
74.10081,90.54498,-0.8277354,0.9697599,3.906502
74.15202,89.2735,-0.7537284,0.9699246,3.906502
74.20156,87.62056,-0.8046087,0.9697599,3.906502
74.25098,87.74771,-0.7907323,0.9697599,3.906502
74.30128,115.4661,-0.6334664,0.9697599,3.906502
74.35131,131.1054,-0.3466879,0.9697599,3.906502
74.40231,126.4009,-0.03215679,0.9699246,3.906502
74.45104,106.1843,0.1227958,0.9697599,3.906502
74.50098,105.0399,0.2615594,0.9697599,3.906502
74.55103,104.277,0.4026364,0.9699246,3.900043
74.60188,107.5829,0.5228985,0.9697599,3.906502
74.65279,107.9643,0.6662873,0.9699246,3.900043
74.70099,98.55534,0.7287313,0.9697599,3.906502
74.75131,94.2323,0.8004257,0.9697599,3.900043
74.8009,91.30788,0.8767453,0.9699246,3.906502
74.85074,89.2735,0.9276255,0.9697599,3.900043
74.90184,88.38345,0.9946948,0.9699246,3.900043
74.95126,87.36626,1.015509,0.9697599,3.900043
75.00074,86.73053,1.052514,0.9699246,3.900043
75.05154,107.3286,1.084892,0.9697599,3.900043
75.10075,124.1122,1.112644,0.9699246,3.900043
75.15289,111.6517,1.131147,0.9697599,3.900043
75.20102,105.0399,1.149647,0.9697599,3.900043
75.25198,97.66531,1.179713,0.9699246,3.900043
75.3011,97.53816,1.202841,0.9697599,3.893583
75.35085,106.4386,1.207466,0.9697599,3.900043
75.40199,107.4557,1.216717,0.9697599,3.893583
75.45164,96.13953,1.214405,0.9697599,3.893583
75.50139,93.72369,1.191277,0.9697599,3.900043
75.55099,91.68932,1.163525,0.9697599,3.900043
75.60143,90.67213,1.14271,0.9699246,3.893583
75.65228,89.78209,1.082578,0.9699246,3.893583
75.70109,88.7649,0.9900696,0.9699246,3.893583
75.7513,93.34225,0.9137501,0.9697599,3.893583
75.80097,121.315,0.8489934,0.9699246,3.893583
75.85084,125.0023,0.8050509,0.9697599,3.893583
75.90247,106.5657,0.7194802,0.9699246,3.893583
75.95113,94.10515,0.6454732,0.9697599,3.893583
76.00115,92.19792,0.5969055,0.9697599,3.893583
76.05116,102.2427,0.5506513,0.9699246,3.893583
76.10101,106.0571,0.478956,0.9699246,3.893583
76.15197,106.1843,0.3980104,0.9697599,3.887124
76.20181,91.94361,0.3147522,0.9699246,3.893583
76.25097,89.5278,0.2268689,0.9697599,3.893583
76.30132,87.87486,0.1274218,0.9699246,3.893583
76.35123,86.22193,0.05110138,0.9697599,3.887124
76.40224,85.07759,0.02103607,0.9697599,3.887124
76.45138,91.18073,-0.06916071,0.9699246,3.887124
76.50082,128.4353,-0.1408551,0.9699246,3.887124
76.55192,128.3081,-0.1894228,0.9598774,3.887124
76.60181,109.4901,-0.3189352,0.9597127,3.887124
76.65226,105.8028,-0.4947027,0.9598774,3.887124
76.70171,104.1499,-0.5039539,0.9598774,3.887124
76.75113,104.4042,-0.5270806,0.9598774,3.887124
76.80127,105.8028,-0.557146,0.9598774,3.887124
76.85121,107.0743,-0.5710223,0.9597127,3.887124
76.90225,94.86804,-0.5872121,0.9598774,3.880665
76.95147,91.43503,-0.61959,0.9598774,3.880665
77.00148,89.40065,-0.6357789,0.9598774,3.887124
77.05154,88.00201,-0.6149648,0.9598774,3.887124
77.1016,87.36626,-0.7259757,0.9598774,3.880665
77.15227,86.47623,-0.8022953,0.9600421,3.880665
77.20102,104.277,-0.8392991,0.9699246,3.880665
77.2515,132.7583,-0.8323614,0.9697599,3.880665
77.30163,121.6964,-0.813859,0.9699246,3.880665
77.35154,111.0159,-0.8369866,0.9699246,3.880665
77.40294,109.4901,-0.8092338,0.9699246,3.880665
77.45093,106.0571,-0.6704702,0.9697599,3.880665
77.50147,105.5485,-0.5178303,0.9697599,3.880665
77.55162,107.2015,-0.31431,0.9697599,3.880665
77.60167,95.75809,-0.1177275,0.9697599,3.880665
77.65222,94.48659,0.04878879,0.9699246,3.880665
77.70155,91.05358,0.189865,0.9699246,3.874206
77.75134,89.5278,0.3193783,0.9699246,3.880665
77.80108,88.25631,0.4280766,0.9697599,3.880665
77.85079,86.73053,0.4882072,0.9699246,3.874206
77.90228,87.36626,0.5737779,0.9699246,3.874206
77.95167,122.4593,0.6639747,0.9697599,3.874206
78.00177,130.2153,0.7356691,0.9699246,3.874206
78.05179,110.8888,0.8143021,0.9699246,3.874206
78.10078,106.4386,0.8698084,0.9697599,3.874206
78.15234,103.1327,0.9484397,0.9697599,3.874206
78.20107,103.2598,1.029386,0.9697599,3.874206
78.25191,105.1671,1.059451,0.9700893,3.874206
78.30187,107.2015,1.103394,0.9699246,3.874206
78.35107,96.52097,1.138084,0.9699246,3.867747
78.40228,93.72369,1.16815,0.9699246,3.867747
78.45112,90.79928,1.186652,0.9697599,3.874206
78.50112,88.89205,1.205153,0.9699246,3.874206
78.55079,87.49342,1.21903,0.9697599,3.874206
78.60191,86.73053,1.232906,0.9699246,3.874206
78.65274,89.90925,1.232906,0.9699246,3.867747
78.70153,110.3802,1.223655,0.9697599,3.867747
78.75084,123.2222,1.209778,0.9699246,3.867747
78.80177,106.1843,1.182025,0.9697599,3.867747
78.85159,94.99519,1.140397,0.9699246,3.867747
78.90253,91.43503,1.117269,0.9697599,3.861288
78.95097,101.9884,1.075641,0.9697599,3.867747
79.00175,106.3114,1.015509,0.9697599,3.867747
79.05161,104.9128,0.9391893,0.9697599,3.867747
79.10162,90.41783,0.8906225,0.9697599,3.867747
79.15253,86.34908,0.8096769,0.9697599,3.867747
79.20125,84.95044,0.7495455,0.9697599,3.867747
79.25126,83.67896,0.6408471,0.9699246,3.867747
79.30141,83.04321,0.5043961,0.9697599,3.867747
79.35096,90.92643,0.4488907,0.9699246,3.861288
79.40221,107.8372,0.3771963,0.9697599,3.861288
79.45207,127.6724,0.3170657,0.9699246,3.861288
79.50191,122.5864,0.2638728,0.9699246,3.861288
79.55081,97.15671,0.189865,0.9699246,3.861288
79.60183,93.85085,0.1597997,0.9697599,3.861288
79.65274,96.13953,0.115858,0.9699246,3.861288
79.70104,102.1155,0.08347926,0.9699246,3.861288
79.7512,103.387,0.0464762,0.9697599,3.854828
79.80127,90.67213,0.0002210998,0.9697599,3.861288
79.85203,84.44184,-0.04603315,0.9699246,3.854828
79.9019,84.18755,-0.1316039,0.9699246,3.861288
79.95108,82.91606,-0.1223536,0.9697599,3.861288
80.00174,81.51743,-0.3790658,0.9699246,3.861288
80.05186,81.64457,-0.5201429,0.9697599,3.854828
80.10098,82.91606,-0.5432696,0.9699246,3.854828
80.15199,112.6688,-0.5525208,0.9697599,3.854828
80.20136,124.2394,-0.5432696,0.9699246,3.854828
80.25146,104.9128,-0.5802734,0.9699246,3.854828
80.30112,103.2598,-0.5941498,0.9699246,3.854828
80.35086,100.3354,-0.5502082,0.9697599,3.854828
80.40249,101.6069,-0.5432696,0.9697599,3.854828
80.45113,104.5313,-0.5340192,0.9699246,3.854828
80.50122,94.2323,-0.5155168,0.9697599,3.854828
80.55122,91.43503,-0.5085791,0.9697599,3.854828
80.60092,87.23911,-0.4900776,0.9697599,3.854828
80.65222,86.34908,-0.4877641,0.9699246,3.848369
80.70123,84.82329,-0.4831389,0.9699246,3.854828
80.75153,83.29751,-0.5478956,0.9699246,3.854828
80.80161,83.67896,-0.6149648,0.9697599,3.848369
80.85136,121.0607,-0.61959,0.9697599,3.854828
80.90221,131.3597,-0.557146,0.9699246,3.848369
80.95203,115.5933,-0.4345713,0.9697599,3.848369
81.00185,104.7856,-0.3559391,0.9699246,3.848369
81.05164,100.3354,-0.194048,0.9700893,3.848369
81.10149,99.06393,0.01409746,0.9697599,3.848369
81.15277,103.0055,0.1366721,0.9699246,3.848369
81.20142,104.7856,0.268498,0.9697599,3.848369
81.25136,93.72369,0.3748837,0.9700893,3.848369
81.30122,90.16354,0.5136473,0.9699246,3.848369
81.35085,86.73053,0.5992181,0.9699246,3.848369
81.40225,85.20473,0.6709124,0.9697599,3.84191
81.45098,83.93326,0.7402951,0.9697599,3.848369
81.50198,83.04321,0.7772982,0.9699246,3.848369
81.55084,83.29751,0.8119895,0.9699246,3.848369
81.6015,108.0915,0.8605564,0.9699246,3.84191
81.65248,129.7068,0.9345642,0.9699246,3.84191
81.70135,122.4593,1.001633,0.9699246,3.84191
81.7515,101.9884,1.029386,0.9697599,3.84191
81.8015,96.13953,1.077953,0.9699246,3.84191
81.85149,96.39381,1.119583,0.9699246,3.84191
81.9025,105.93,1.154273,0.9697599,3.84191
81.9511,107.2015,1.182025,0.9699246,3.84191
82.00085,92.57936,1.202841,0.9699246,3.84191
82.05173,91.68932,1.214405,0.9700893,3.835451
82.1016,89.2735,1.221342,0.9699246,3.835451
82.15249,86.98483,1.230594,0.9697599,3.835451
82.20094,85.45904,1.22828,0.9697599,3.84191
82.25127,84.82329,1.216717,0.9700893,3.84191
82.30296,94.48659,1.198216,0.9699246,3.835451
82.35172,122.0779,1.182025,0.9697599,3.835451
82.40273,125.638,1.175088,0.9699246,3.835451
82.45088,99.19109,1.145022,0.9699246,3.835451
82.50085,88.12916,1.119583,0.9699246,3.835451
82.55197,87.87486,1.103394,0.9697599,3.835451
82.60184,102.1155,1.096455,0.9697599,3.835451
82.65225,104.7856,1.09183,0.9699246,3.835451
82.70102,104.7856,1.084892,0.9697599,3.828992
82.75129,89.5278,1.068703,0.9697599,3.828992
82.80235,86.34908,1.036325,0.9699246,3.835451
82.85095,84.82329,1.010884,0.9697599,3.835451
82.90189,84.18755,0.9253138,0.9700893,3.828992
82.95168,82.78893,0.84668,0.9697599,3.835451
83.00116,94.2323,0.7842368,0.9699246,3.828992
83.05209,127.1638,0.7287313,0.9699246,3.828992
83.10144,128.8167,0.6801636,0.9699246,3.828992
83.15245,102.2427,0.5784039,0.9697599,3.828992
83.20193,97.28386,0.4951458,0.9697599,3.828992
83.25146,91.81647,0.4442655,0.9699246,3.828992
83.30201,100.0811,0.3933852,0.9697599,3.828992
83.35197,105.6757,0.3332546,0.9699246,3.828992
83.40266,105.93,0.2615594,0.9697599,3.828992
83.45097,90.41783,0.1968036,0.9697599,3.828992
83.5017,85.96764,0.1042942,0.9697599,3.822533
83.553,85.07759,-0.02753162,0.9699246,3.828992
83.60137,84.44184,-0.1107898,0.9699246,3.822533
83.6531,83.29751,-0.2495534,0.9697599,3.828992
83.70159,93.46941,-0.4114446,0.9697599,3.828992
83.75096,131.4868,-0.4877641,0.9697599,3.828992
83.80281,130.0882,-0.5132043,0.9697599,3.822533
83.85096,106.4386,-0.5525208,0.9699246,3.822533
83.90284,104.1499,-0.6473427,0.9699246,3.822533
83.95106,102.497,-0.6288412,0.9697599,3.822533
84.00097,101.8612,-0.6149648,0.9699246,3.828992
84.05244,102.6241,-0.6126522,0.9699246,3.822533
84.10108,104.4042,-0.6219026,0.9699246,3.822533
84.15203,93.08795,-0.603401,0.9697599,3.822533
84.20117,91.05358,-0.6080262,0.9697599,3.822533
84.25149,86.34908,-0.5502082,0.9699246,3.822533
84.30267,85.20473,-0.5802734,0.9699246,3.816073
84.35136,84.0604,-0.6519679,0.9697599,3.816073
84.4023,91.68932,-0.6889718,0.9699246,3.816073
84.45109,117.7548,-0.6542813,0.9697599,3.822533
84.50109,132.6312,-0.545583,0.9697599,3.822533
84.55235,113.0503,-0.388317,0.9697599,3.822533
84.60195,109.1087,-0.2588046,0.9699246,3.816073
84.65296,105.6757,-0.08303706,0.9699246,3.816073
84.70158,103.7684,0.05803998,0.9697599,3.816073
84.75171,107.2015,0.1875524,0.9699246,3.816073
84.80294,107.9643,0.3216908,0.9697599,3.816073
84.85098,97.9196,0.4118876,0.9699246,3.816073
84.903,92.7065,0.4928323,0.9699246,3.816073
84.95187,90.67213,0.5760913,0.9697599,3.816073
85.00172,89.90925,0.6408471,0.9699246,3.816073
85.05272,89.0192,0.7032912,0.9697599,3.816073
85.10148,89.40065,0.7772982,0.9699246,3.816073
85.15238,107.5829,0.8536186,0.9699246,3.809614
85.20208,132.6312,0.9021863,0.9697599,3.816073
85.25134,114.5761,0.9415027,0.9699246,3.809614
85.30283,107.0743,0.9738806,0.9697599,3.809614
85.35108,100.9712,1.015509,0.9697599,3.809614
85.40279,102.8784,1.043262,0.9697599,3.809614
85.451,109.2358,1.075641,0.9699246,3.809614
85.50156,109.8716,1.108019,0.9699246,3.809614
85.55263,98.04675,1.12652,0.9697599,3.809614
85.60137,96.01237,1.135772,0.9699246,3.809614
85.65232,93.72369,1.138084,0.9699246,3.809614
85.70123,92.57936,1.128833,0.9699246,3.809614
85.75157,91.18073,1.098767,0.9699246,3.809614
85.80309,91.43503,1.068703,0.9699246,3.803155
85.85108,115.9747,1.027073,0.9699246,3.803155
85.90218,128.6896,0.9738806,0.9699246,3.809614
85.95094,110.8888,0.920687,0.9699246,3.809614
86.00187,101.7341,0.8836839,0.9697599,3.809614
86.05295,94.10515,0.835117,0.9699246,3.803155
86.10187,94.48659,0.7934871,0.9699246,3.803155
86.1527,108.2186,0.7333565,0.9699246,3.803155
86.20158,107.0743,0.6662873,0.9697599,3.809614
86.25107,95.37663,0.6015307,0.9697599,3.803155
86.30232,90.29069,0.5113347,0.9697599,3.803155
86.35165,89.40065,0.4604545,0.9697599,3.809614
86.40257,88.25631,0.3586948,0.9699246,3.803155
86.45142,87.87486,0.2615594,0.9699246,3.803155
86.50191,103.2598,0.1875524,0.9699246,3.803155
86.55197,130.3425,0.1366721,0.9699246,3.803155
86.60186,133.1398,0.07422893,0.9697599,3.803155
86.65246,108.9815,0.004847123,0.9699246,3.803155
86.70136,106.6929,-0.08766223,0.9699246,3.796696
86.75114,104.0227,-0.1107898,0.9697599,3.803155
86.80205,104.0227,-0.1524189,0.9699246,3.796696
86.8513,106.82,-0.2102369,0.9699246,3.796696
86.90269,107.9643,-0.2449282,0.9697599,3.803155
86.95095,95.24948,-0.2796187,0.9697599,3.796696
87.00122,92.57936,-0.3513131,0.9700893,3.796696
87.05241,89.5278,-0.3744406,0.9699246,3.796696
87.10104,89.14634,-0.3836918,0.9697599,3.796696
87.15236,87.11198,-0.4970153,0.9699246,3.796696
87.201,88.38345,-0.5918372,0.9600421,3.803155
87.25119,122.5864,-0.6265286,0.9598774,3.796696
87.30207,133.3941,-0.6242151,0.9598774,3.796696
87.35148,116.229,-0.6404049,0.9597127,3.796696
87.40283,109.7444,-0.6843466,0.9598774,3.796696
87.45094,107.8372,-0.6727828,0.9598774,3.790237
87.50195,106.3114,-0.6172774,0.9598774,3.796696
87.55282,107.2015,-0.5987759,0.9597127,3.796696
87.60104,107.9643,-0.5825861,0.9598774,3.796696
87.65294,97.53816,-0.5779609,0.9598774,3.796696
87.70191,96.01237,-0.5640845,0.9598774,3.790237
87.75207,91.05358,-0.545583,0.9598774,3.796696
87.80294,89.90925,-0.5478956,0.9598774,3.790237
87.85142,89.40065,-0.4877641,0.9600421,3.796696
87.90268,87.87486,-0.5733357,0.9699246,3.790237
87.95132,87.11198,-0.6542813,0.9697599,3.790237
88.00098,101.2255,-0.6750954,0.9697599,3.790237
88.05193,133.0126,-0.6057136,0.9699246,3.790237
88.102,133.0126,-0.4877641,0.9699246,3.790237
88.15248,108.3458,-0.3813792,0.9697599,3.790237
88.20181,106.6929,-0.2495534,0.9697599,3.790237
88.25119,104.4042,-0.07609846,0.9699246,3.790237
88.3022,104.7856,0.06960291,0.9697599,3.790237
88.35207,106.4386,0.1759886,0.9699246,3.790237
88.40294,99.19109,0.3147522,0.9699246,3.790237
88.45148,93.978,0.4026364,0.9699246,3.783778
88.50191,91.30788,0.4812694,0.9697599,3.783778
88.55231,89.78209,0.5807166,0.9600421,3.783778
88.60194,88.7649,0.6477857,0.9597127,3.783778
88.65294,87.87486,0.7379817,0.9597127,3.783778
88.70124,86.22193,0.8212407,0.9598774,3.783778
88.75121,86.98483,0.8859974,0.9598774,3.783778
88.80247,113.3046,0.9345642,0.9598774,3.783778
88.85123,128.181,0.983131,0.9598774,3.783778
88.90248,118.5177,1.001633,0.9598774,3.783778
88.95217,100.7169,1.008572,0.9598774,3.783778
89.00147,95.24948,1.0502,0.9600421,3.783778
89.0527,99.06393,1.080266,0.9600421,3.783778
89.10143,101.7341,1.110331,0.9598774,3.777318
89.1524,105.93,1.133458,0.9598774,3.783778
89.20193,92.19792,1.14271,0.9598774,3.783778
89.25195,90.29069,1.133458,0.9598774,3.783778
89.30294,87.49342,1.105706,0.9598774,3.777318
89.3513,86.34908,1.075641,0.9598774,3.783778
89.40247,85.58618,1.013197,0.9598774,3.777318
89.45123,84.82329,0.920687,0.9598774,3.777318
89.50182,86.73053,0.8374296,0.9598774,3.777318
89.55274,113.0503,0.7842368,0.9697599,3.777318
89.60148,123.6036,0.7333565,0.9697599,3.777318
89.65271,102.8784,0.6801636,0.9699246,3.783778
89.7018,92.57936,0.5992181,0.9699246,3.777318
89.75196,86.98483,0.557589,0.9697599,3.777318
89.80294,94.86804,0.5298362,0.9697599,3.770859
89.85118,103.6413,0.4858946,0.9699246,3.777318
89.90195,101.7341,0.4188254,0.9697599,3.770859
89.95194,87.49342,0.3795089,0.9700893,3.777318
90.00193,82.53461,0.3286286,0.9697599,3.777318
90.05278,81.13599,0.2592468,0.9699246,3.777318
90.10203,81.39028,0.1829272,0.9700893,3.770859
90.15292,80.88168,0.1227958,0.9699246,3.777318
90.20155,80.50024,0.0464762,0.9697599,3.770859
90.25144,84.0604,-0.0390954,0.9699246,3.770859
90.30234,122.8407,-0.07609846,0.9697599,3.770859
90.35175,128.6896,-0.09691343,0.9699246,3.770859
90.40218,102.8784,-0.1894228,0.9697599,3.770859
90.45153,98.30104,-0.2842439,0.9700893,3.770859
90.50214,95.63092,-0.3073714,0.9699246,3.770859
90.55318,99.06393,-0.388317,0.9699246,3.770859
90.60127,102.8784,-0.4322587,0.9699246,3.770859
90.65318,104.7856,-0.4530737,0.9699246,3.770859
90.70151,89.14634,-0.4762012,0.9699246,3.770859
90.75204,86.73053,-0.5132043,0.9697599,3.770859
90.8028,83.67896,-0.5478956,0.9699246,3.770859
90.85142,82.78893,-0.5085791,0.9699246,3.7644
90.9029,81.64457,-0.6565939,0.9699246,3.7644
90.95192,80.88168,-0.7583536,0.9699246,3.7644
91.00182,105.4214,-0.8046087,0.9697599,3.7644
91.05307,130.5968,-0.8184851,0.9697599,3.7644
91.10154,131.1054,-0.813859,0.9699246,3.7644
91.15241,104.4042,-0.8416117,0.9699246,3.7644
91.20134,100.3354,-0.8763031,0.9699246,3.7644
91.25122,98.30104,-0.8462378,0.9699246,3.7644
91.3023,102.497,-0.8439243,0.9697599,3.7644
91.35221,104.7856,-0.8601142,0.9697599,3.7644
91.40314,103.6413,-0.8739905,0.9697599,3.7644
91.45158,90.16354,-0.8832408,0.9699246,3.757941
91.50134,86.85767,-0.8994306,0.9699246,3.757941
91.55244,85.20473,-0.8809283,0.9697599,3.757941
91.60133,84.82329,-0.8739905,0.9697599,3.7644
91.65242,83.55181,-0.9734376,0.9699246,3.7644
91.70171,89.14634,-1.028943,0.9699246,3.757941
91.75105,115.7204,-1.028943,0.9697599,3.757941
91.80221,132.6312,-0.9896265,0.9697599,3.757941
91.85204,114.5761,-0.9595612,0.9699246,3.757941
91.90266,104.7856,-0.9780628,0.9697599,3.757941
91.95154,99.06393,-0.9387463,0.9699246,3.757941
92.00104,99.44539,-0.8670519,0.9699246,3.757941
92.05222,107.4557,-0.8392991,0.9699246,3.757941
92.10221,108.2186,-0.8046087,0.9699246,3.757941
92.15214,94.86804,-0.7629796,0.9697599,3.751482
92.20203,91.81647,-0.6889718,0.9699246,3.757941
92.25185,87.11198,-0.6288412,0.9700893,3.757941
92.30213,85.96764,-0.5640845,0.9697599,3.757941
92.35146,84.95044,-0.5848995,0.9697599,3.757941
92.40313,83.67896,-0.6057136,0.9699246,3.757941
92.45104,90.92643,-0.6010885,0.9700893,3.751482
92.50125,117.2462,-0.5085791,0.9699246,3.751482
92.55233,118.3905,-0.3813792,0.9699246,3.751482
92.60218,105.1671,-0.330499,0.9699246,3.751482
92.65291,97.15671,-0.2009857,0.9697599,3.751482
92.70167,96.52097,-0.05528434,0.9699246,3.751482
92.75153,103.2598,0.08347926,0.9699246,3.745023
92.8027,104.7856,0.1713635,0.9697599,3.751482
92.85194,107.0743,0.2823744,0.9699246,3.745023
92.90318,94.10515,0.3679451,0.9699246,3.751482
92.95133,89.90925,0.4234505,0.9699246,3.751482
93.00118,87.49342,0.4858946,0.9697599,3.751482
93.05212,85.84048,0.5645276,0.9699246,3.745023
93.10146,85.20473,0.6223456,0.9699246,3.745023
93.15286,83.93326,0.6778511,0.9697599,3.745023
93.2017,85.96764,0.714855,0.9699246,3.745023
93.25166,114.4489,0.7796108,0.9699246,3.745023
93.30296,127.9267,0.8651815,0.9699246,3.745023
93.35218,109.1087,0.9276255,0.9699246,3.745023
93.40233,99.19109,0.9553783,0.9697599,3.745023
93.45184,91.68932,0.9877562,0.9697599,3.745023
93.50189,97.53816,1.022447,0.9699246,3.745023
93.55292,105.8028,1.038636,0.9699246,3.745023
93.60165,106.6929,1.071014,0.9699246,3.745023
93.65318,93.34225,1.077953,0.9699246,3.745023
93.70193,89.0192,1.059451,0.9699246,3.738563
93.75182,86.34908,1.022447,0.9699246,3.745023
93.80258,84.69615,0.9808193,0.9699246,3.745023
93.85132,84.3147,0.946128,0.9699246,3.738563
93.90318,83.93326,0.8651815,0.9697599,3.738563
93.95188,84.0604,0.8096769,0.9697599,3.738563
94.00193,107.4557,0.7056038,0.9699246,3.738563
94.0532,126.4009,0.6084692,0.9697599,3.738563
94.10203,124.748,0.5367749,0.9699246,3.738563
94.15302,88.63776,0.4396403,0.9699246,3.738563
94.20216,85.71333,0.3540687,0.9699246,3.738563
94.25199,96.77527,0.2962507,0.9699246,3.738563
94.30276,104.7856,0.2268689,0.9697599,3.738563
94.35127,104.4042,0.1459233,0.9697599,3.732104
94.403,89.40065,0.1066068,0.9699246,3.738563
94.45145,85.58618,0.0395376,0.9699246,3.732104
94.50144,84.0604,-0.03215679,0.9699246,3.732104
94.55263,82.40748,-0.1339165,0.9699246,3.732104
94.60104,81.64457,-0.2310519,0.9699246,3.738563
94.65327,80.62739,-0.3744406,0.9697599,3.738563
94.7022,81.26313,-0.545583,0.9699246,3.732104
94.75212,112.5417,-0.6473427,0.9699246,3.732104
94.80288,132.6312,-0.7051607,0.9699246,3.732104
94.85127,125.2566,-0.7352269,0.9699246,3.732104
94.90228,104.7856,-0.77223,0.9697599,3.725645
94.95187,99.95398,-0.77223,0.9697599,3.732104
95.00145,99.57254,-0.6866592,0.9697599,3.732104
95.05267,102.6241,-0.5663971,0.9699246,3.732104
95.10145,105.6757,-0.4715752,0.9697599,3.732104
95.15261,107.0743,-0.3860044,0.9699246,3.732104
95.20229,90.54498,-0.3189352,0.9697599,3.725645
95.25134,87.62056,-0.2379896,0.9697599,3.725645
95.30244,85.58618,-0.115415,0.9699246,3.725645
95.35114,84.0604,-0.03678196,0.9699246,3.725645
95.40315,83.04321,0.06266515,0.9697599,3.725645
95.45135,83.93326,0.1459233,0.9697599,3.725645
95.50204,107.9643,0.2153051,0.9699246,3.725645
95.55277,130.9782,0.289313,0.9697599,3.725645
95.60128,126.9095,0.3841341,0.9699246,3.725645
95.65311,105.1671,0.4650796,0.9699246,3.725645
95.70164,99.82683,0.5298362,0.9699246,3.725645
95.75153,98.80965,0.6107818,0.9697599,3.725645
95.80235,103.6413,0.6616621,0.9697599,3.725645
95.85105,108.4729,0.7032912,0.9700893,3.725645
95.90289,96.52097,0.7356691,0.9699246,3.725645
95.95164,91.43503,0.7680478,0.9699246,3.725645
96.00177,90.29069,0.8212407,0.9697599,3.719186
96.05273,87.49342,0.8721201,0.9697599,3.719186
96.1011,87.49342,0.9021863,0.9697599,3.719186
96.15215,85.84048,0.9114366,0.9699246,3.719186
96.20171,105.1671,0.8998728,0.9699246,3.719186
96.25139,129.1982,0.8605564,0.9699246,3.719186
96.30251,120.8064,0.7518581,0.9699246,3.719186
96.35178,101.4798,0.6223456,0.9699246,3.719186
96.40222,90.29069,0.5483387,0.9697599,3.719186
96.45214,95.63092,0.5020835,0.9697599,3.719186
96.50185,106.4386,0.4720182,0.9697599,3.712727
96.55214,107.71,0.421138,0.9699246,3.712727
96.60152,92.7065,0.3656325,0.9697599,3.719186
96.65239,88.63776,0.3031893,0.9699246,3.719186
96.70114,87.23911,0.2708106,0.9697599,3.712727
96.75148,86.09478,0.2129925,0.9697599,3.719186
96.80312,85.20473,0.09041788,0.9699246,3.712727
96.85201,93.978,0.0464762,0.9699246,3.712727
96.90236,102.8784,0.0164109,0.9699246,3.712727
96.95119,125.8923,0.004847123,0.9699246,3.712727
97.00163,104.4042,-0.03215679,0.9697599,3.712727
97.05268,102.1155,-0.08534965,0.9697599,3.712727
97.10139,99.19109,-0.09460084,0.9697599,3.712727
97.15234,100.9712,-0.07378587,0.9697599,3.712727
97.20181,107.4557,-0.09228741,0.9697599,3.712727
97.25215,108.7272,-0.1223536,0.9699246,3.712727
97.30313,95.63092,-0.1616701,0.9699246,3.712727
97.35193,90.54498,-0.2148621,0.9699246,3.706268
97.40314,89.5278,-0.2726809,0.9697599,3.712727
97.4518,88.00201,-0.330499,0.9699246,3.712727
97.50168,86.73053,-0.4114446,0.9697599,3.706268
97.55293,98.80965,-0.5062665,0.9697599,3.706268
97.60111,129.1982,-0.5594594,0.9697599,3.706268
97.65263,131.3597,-0.5872121,0.9699246,3.712727
97.7011,111.7788,-0.6265286,0.9699246,3.706268
97.75112,107.71,-0.6866592,0.9699246,3.706268
97.80309,106.4386,-0.6519679,0.9697599,3.706268
97.85117,107.4557,-0.6565939,0.9699246,3.706268
97.9024,109.8716,-0.6658442,0.9697599,3.706268
97.95116,109.9987,-0.6750954,0.9697599,3.706268
98.00111,98.04675,-0.7028481,0.9697599,3.706268
98.05209,95.75809,-0.7699174,0.9697599,3.706268
98.10192,94.48659,-0.7976701,0.9699246,3.706268
98.1532,92.19792,-0.9063684,0.9697599,3.706268
98.20124,90.29069,-1.035882,0.9697599,3.699808
98.2522,90.16354,-1.109889,0.9697599,3.706268
98.30219,114.4489,-1.176958,0.9699246,3.706268
98.35223,133.0126,-1.170019,0.9697599,3.699808
98.40301,128.9439,-1.14458,0.9697599,3.706268
98.45214,112.9231,-1.10295,0.9699246,3.706268
98.50159,109.363,-0.9688125,0.9699246,3.699808
98.5524,107.5829,-0.7467898,0.9697599,3.699808
98.60188,107.9643,-0.5687097,0.9697599,3.699808
98.65239,108.8544,-0.4137571,0.9697599,3.699808
98.70197,98.6825,-0.2981211,0.9697599,3.699808
98.75199,96.90242,-0.07147329,0.9699246,3.699808
98.80292,94.10515,0.111232,0.9697599,3.706268
98.85113,92.57936,0.2430578,0.9699246,3.699808
98.9025,90.67213,0.3679451,0.9699246,3.699808
98.95167,89.40065,0.4396403,0.9697599,3.699808
99.00136,87.87486,0.5298362,0.9697599,3.699808
99.05287,95.63092,0.6130944,0.9699246,3.693349
99.10118,111.7788,0.6709124,0.9697599,3.693349
99.15215,126.4009,0.7472329,0.9699246,3.699808
99.2018,109.4901,0.7958006,0.9697599,3.693349
99.25137,105.93,0.8443674,0.9699246,3.693349
99.30252,105.0399,0.9391893,0.9697599,3.693349
99.3511,107.9643,1.022447,0.9697599,3.693349
99.40324,108.6001,1.073328,0.9697599,3.693349
99.45114,109.4901,1.114958,0.9699246,3.693349
99.50227,97.41101,1.151961,0.9695953,3.693349
99.55214,95.37663,1.182025,0.9699246,3.693349
99.60133,94.48659,1.195902,0.9697599,3.693349
99.65247,92.57936,1.212091,0.9697599,3.693349
99.70129,91.05358,1.188964,0.9697599,3.693349
99.75167,89.5278,1.145022,0.9697599,3.68689
99.80266,92.07076,1.114958,0.9697599,3.68689
99.85199,122.7136,1.054825,0.9699246,3.693349
99.90299,124.3665,1.001633,0.9699246,3.68689
99.95187,103.6413,0.9091232,0.9697599,3.693349
100.0023,96.26666,0.8420548,0.9699246,3.693349
100.0523,94.35944,0.8119895,0.9699246,3.68689
100.1011,101.8612,0.756484,0.9697599,3.68689
100.1534,107.9643,0.6662873,0.9697599,3.68689
100.202,105.2942,0.5853417,0.9697599,3.68689
100.2514,93.2151,0.4928323,0.9697599,3.68689
100.3025,90.29069,0.3887601,0.9697599,3.68689
100.3513,88.00201,0.2661854,0.9697599,3.68689
100.4025,87.49342,0.1366721,0.9697599,3.68689
100.4522,86.73053,0.07422893,0.9697599,3.68689
100.5023,87.11198,0.004847123,0.9699246,3.68689
100.5523,96.77527,-0.08766223,0.9697599,3.68689
100.6011,131.4868,-0.1639826,0.9697599,3.68689
100.6531,124.8751,-0.2564912,0.9697599,3.68689
100.7016,107.2015,-0.4183823,0.9697599,3.68689
100.7516,104.7856,-0.5224555,0.9697599,3.680431
100.8029,102.6241,-0.5594594,0.9697599,3.680431
100.8513,104.0227,-0.6057136,0.9699246,3.680431
100.9025,105.8028,-0.6427175,0.9697599,3.680431
100.9513,96.77527,-0.6959104,0.9697599,3.680431
101.0014,92.19792,-0.7213506,0.9697599,3.680431
101.0531,89.78209,-0.7213506,0.9697599,3.680431
101.1012,88.63776,-0.7005355,0.9697599,3.680431
101.1528,87.36626,-0.7306009,0.9697599,3.680431
101.2015,86.22193,-0.7745425,0.9695953,3.680431
101.2523,85.58618,-0.8832408,0.9697599,3.680431
101.3028,83.67896,-1.017379,0.9697599,3.673972
101.3519,115.339,-1.091387,0.9697599,3.680431
101.4027,133.0126,-1.156143,0.9697599,3.673972
101.4521,121.315,-1.287969,0.9697599,3.673972
101.5017,106.4386,-1.565496,0.9697599,3.673972
101.5528,104.5313,-1.639504,0.9697599,3.673972
101.6018,104.1499,-1.581686,0.9697599,3.673972
101.6527,105.2942,-1.521554,0.9697599,3.673972
101.7015,107.2015,-1.401292,0.9697599,3.673972
101.7523,96.90242,-1.230151,0.9699246,3.673972
101.8031,93.34225,-0.9456849,0.9695953,3.673972
101.8519,89.90925,-0.7051607,0.9697599,3.667513
101.9025,89.14634,-0.4785138,0.9697599,3.673972
101.9511,87.62056,-0.2865573,0.9697599,3.673972
102.002,86.47623,-0.07609846,0.9697599,3.667513
102.0532,84.569,0.04416362,0.9695953,3.673972
102.1015,81.00883,0.1505485,0.9697599,3.667513
102.153,78.33871,0.2314941,0.9697599,3.667513
102.2015,122.4593,0.3332546,0.9697599,3.673972
102.2518,129.8339,0.4465781,0.9699246,3.667513
102.3023,104.0227,0.5483387,0.9697599,3.667513
102.3513,101.0983,0.6292834,0.9699246,3.667513
102.4026,99.44539,0.7449203,0.9697599,3.667513
102.4514,100.5897,0.8189272,0.9697599,3.667513
102.5012,102.1155,0.8721201,0.9699246,3.667513
102.5524,105.5485,0.9183752,0.9697599,3.667513
102.6024,93.34225,0.9692555,0.9697599,3.667513
102.6525,89.5278,1.010884,0.9697599,3.667513
102.7021,87.11198,1.04095,0.9697599,3.667513
102.7524,86.73053,1.064077,0.9697599,3.667513
102.8024,85.58618,1.098767,0.9697599,3.661053
102.8521,84.82329,1.110331,0.9699246,3.661053
102.9029,84.95044,1.114958,0.9697599,3.661053
102.9516,97.79247,1.131147,0.9697599,3.661053
103.0015,123.6036,1.138084,0.9697599,3.661053
103.0528,114.7032,1.124208,0.9697599,3.667513
103.1014,96.52097,1.084892,0.9699246,3.661053
103.1523,85.58618,1.059451,0.9699246,3.661053
103.2019,87.49342,1.029386,0.9697599,3.661053
103.2517,100.2083,0.9808193,0.9699246,3.661053
103.3032,103.7684,0.9160618,0.9697599,3.661053
103.3517,88.25631,0.8166147,0.9697599,3.654594
103.4029,83.80611,0.6824762,0.9697599,3.654594
103.4524,80.88168,0.5899677,0.9697599,3.661053
103.5023,79.73734,0.5067087,0.9697599,3.661053
103.5522,79.3559,0.4072616,0.9697599,3.661053
103.602,78.97446,0.326316,0.9697599,3.661053
103.6531,88.7649,0.2777492,0.9699246,3.661053
103.7021,114.1946,0.2245563,0.9697599,3.661053
103.7516,129.4525,0.189865,0.9699246,3.654594
103.8027,99.95398,0.1343595,0.9697599,3.654594
103.852,89.0192,0.08579271,0.9697599,3.654594
103.9022,87.11198,0.06960291,0.9699246,3.654594
103.9514,96.39381,0.06035257,0.9697599,3.654594
104.0024,99.06393,0.03259984,0.9697599,3.654594
104.0534,103.2598,0.0002210998,0.9699246,3.654594
104.1019,86.34908,-0.02753162,0.9699246,3.654594
104.1526,81.26313,-0.06684812,0.9697599,3.654594
104.2024,79.3559,-0.1131024,0.9699246,3.654594
104.2521,78.21156,-0.173233,0.9697599,3.648135
104.3031,78.21156,-0.251866,0.9697599,3.648135
104.3513,80.11879,-0.446135,0.9699246,3.654594
104.4027,101.7341,-0.5848995,0.9697599,3.654594
104.4513,130.724,-0.61959,0.9699246,3.648135
104.5023,130.3425,-0.6612191,0.9697599,3.648135
104.5522,100.7169,-0.7537284,0.9699246,3.648135
104.6016,96.52097,-0.7953575,0.9697599,3.648135
104.6526,95.75809,-0.7814811,0.9697599,3.648135
104.7017,102.6241,-0.7861063,0.9697599,3.648135
104.7516,103.387,-0.7884189,0.9699246,3.648135
104.8023,103.6413,-0.756041,0.9697599,3.648135
104.8516,88.25631,-0.7398521,0.9699246,3.648135
104.9024,81.26313,-0.7398521,0.9598774,3.648135
104.9524,81.26313,-0.7051607,0.9597127,3.648135
105.0023,80.50024,-0.7329134,0.9598774,3.641676
105.0533,80.11879,-0.7190371,0.9597127,3.641676
105.1023,81.64457,-0.6889718,0.9598774,3.641676
105.1529,107.2015,-0.5039539,0.9597127,3.641676
105.2013,130.724,-0.2819313,0.9598774,3.641676
105.2519,104.7856,-0.1200401,0.9598774,3.641676
105.3031,101.8612,0.0164109,0.9597127,3.641676
105.3513,99.57254,0.1574871,0.9598774,3.641676
105.4027,101.0983,0.3031893,0.9598774,3.641676
105.4515,104.0227,0.3864475,0.9598774,3.641676
105.5018,96.52097,0.4581419,0.9597127,3.635217
105.5533,92.19792,0.5737779,0.9598774,3.641676
105.6021,88.25631,0.6732259,0.9597127,3.635217
105.6528,86.47623,0.7772982,0.9598774,3.641676
105.7014,83.67896,0.8582438,0.9597127,3.635217
105.7514,82.78893,0.8836839,0.9598774,3.641676
105.8026,91.18073,0.929939,0.9597127,3.641676
105.8524,124.1122,0.9738806,0.9597127,3.635217
105.9031,131.4868,1.022447,0.9597127,3.635217
105.9513,104.6585,1.052514,0.9598774,3.635217
106.0014,99.57254,1.084892,0.9598774,3.635217
106.0526,95.37663,1.12652,0.9598774,3.635217
106.1023,100.3354,1.165836,0.9598774,3.635217
106.1533,104.7856,1.193589,0.9598774,3.635217
106.2015,108.8544,1.209778,0.9598774,3.635217
106.2518,94.48659,1.225969,0.9598774,3.635217
106.3029,90.29069,1.225969,0.9598774,3.635217
106.3524,87.11198,1.221342,0.9597127,3.635217
106.4024,85.20473,1.179713,0.9598774,3.628757
106.4519,85.07759,1.140397,0.9598774,3.635217
106.5016,101.4798,1.096455,0.9598774,3.635217
106.5526,128.6896,1.034011,0.9598774,3.628757
106.6013,123.9851,0.9785058,0.9598774,3.628757
106.6525,101.9884,0.9160618,0.9598774,3.628757
106.7013,91.81647,0.8767453,0.9598774,3.628757
106.7516,92.19792,0.8328036,0.9598774,3.628757
106.8023,105.5485,0.7587966,0.9597127,3.628757
106.8518,107.2015,0.6801636,0.9598774,3.628757
106.9031,93.72369,0.6061566,0.9597127,3.628757
106.9517,90.03638,0.5298362,0.9598774,3.628757
107.0024,87.62056,0.4350143,0.959548,3.628757
107.0525,85.96764,0.3378798,0.9598774,3.628757
107.1022,85.33189,0.2985633,0.9598774,3.622298
107.1528,84.44184,0.2615594,0.9597127,3.628757
107.2022,109.8716,0.2106799,0.9597127,3.622298
107.2521,133.0126,0.1621123,0.9598774,3.622298
107.3035,114.8304,0.111232,0.9598774,3.628757
107.3514,103.6413,0.03722502,0.9598774,3.622298
107.4031,102.2427,0.01872348,0.959548,3.622298
107.4518,101.8612,0.007159707,0.9598774,3.622298
107.5018,102.6241,-0.02753162,0.9597127,3.622298
107.5524,105.93,-0.07147329,0.9597127,3.628757
107.6019,95.75809,-0.1131024,0.9597127,3.622298
107.6531,90.67213,-0.177859,0.9597127,3.622298
107.7017,88.63776,-0.2680549,0.9598774,3.622298
107.7519,86.85767,-0.3189352,0.9597127,3.615839
107.8024,85.20473,-0.4762012,0.9598774,3.622298
107.8516,85.96764,-0.6311538,0.9598774,3.622298
107.9026,94.61374,-0.6681577,0.9600421,3.622298
107.9519,127.6724,-0.6843466,0.9597127,3.622298
108.0018,131.4868,-0.7051607,0.9597127,3.622298
108.0522,107.9643,-0.756041,0.9597127,3.615839
108.1016,107.0743,-0.7930449,0.9598774,3.622298
108.1528,106.0571,-0.7814811,0.9598774,3.615839
108.2016,106.4386,-0.7976701,0.9598774,3.615839
108.2516,107.9643,-0.8115464,0.9598774,3.615839
108.3033,108.4729,-0.7745425,0.9597127,3.615839
108.3514,94.99519,-0.77223,0.9598774,3.615839
108.4025,92.07076,-0.7375395,0.9597127,3.615839
108.4522,90.79928,-0.682034,0.9600421,3.615839
108.5014,88.7649,-0.6126522,0.9598774,3.615839
108.5528,87.49342,-0.5825861,0.9699246,3.615839
108.6016,88.63776,-0.4877641,0.9697599,3.615839
108.6531,119.7892,-0.4068185,0.9699246,3.615839
108.702,133.0126,-0.2449282,0.9699246,3.615839
108.7517,116.1019,-0.1015386,0.9697599,3.615839
108.8024,109.8716,0.002534538,0.9697599,3.60938
108.8524,106.3114,0.1089194,0.9697599,3.60938
108.9028,104.9128,0.2245563,0.9697599,3.60938
108.9514,107.2015,0.3216908,0.9697599,3.60938
109.0016,108.3458,0.421138,0.9697599,3.60938
109.0527,99.95398,0.5668402,0.9697599,3.60938
109.1014,96.90242,0.6755385,0.9697599,3.60938
109.1532,94.10515,0.7611092,0.9699246,3.60938
109.2024,91.05358,0.8212407,0.9697599,3.615839
109.2519,89.40065,0.8952476,0.9697599,3.60938
109.3032,87.87486,0.9576917,0.9699246,3.60938
109.3523,87.11198,0.9877562,0.9699246,3.60938
109.4031,107.9643,1.010884,0.9699246,3.60938
109.4515,129.5796,1.043262,0.9699246,3.60938
109.5016,122.8407,1.061764,0.9697599,3.60938
109.5528,103.7684,1.075641,0.9699246,3.60938
109.6014,98.80965,1.108019,0.9699246,3.602921
109.6527,98.80965,1.140397,0.9697599,3.602921
109.7015,105.5485,1.14271,0.9697599,3.602921
109.7514,107.2015,1.131147,0.9697599,3.602921
109.8035,94.86804,1.098767,0.9695953,3.602921
109.8517,92.57936,1.022447,0.9697599,3.602921
109.9029,89.90925,0.9021863,0.9699246,3.602921
109.9516,87.49342,0.7958006,0.9699246,3.602921
110.0018,86.34908,0.7125424,0.9699246,3.602921
110.0532,85.33189,0.6339094,0.9699246,3.602921
110.1019,85.07759,0.5182725,0.9697599,3.602921
110.1532,101.9884,0.4072616,0.9699246,3.602921
110.2021,126.2737,0.3101271,0.9697599,3.602921
110.2524,107.2015,0.2268689,0.9699246,3.602921
110.3031,99.82683,0.1274218,0.9699246,3.602921
110.3519,92.57936,0.08347926,0.9697599,3.596462
110.4029,97.9196,0.02566124,0.9697599,3.602921
110.4515,106.0571,-0.02521904,0.9699246,3.602921
110.5024,105.1671,-0.1038512,0.9697599,3.602921
110.5526,91.30788,-0.1801716,0.9699246,3.596462
110.6022,88.38345,-0.2611172,0.9700893,3.602921
110.6534,85.96764,-0.3443753,0.9697599,3.590003
110.702,84.44184,-0.404506,0.9697599,3.596462
110.7522,82.91606,-0.5039539,0.9697599,3.596462
110.8024,82.02603,-0.6612191,0.9697599,3.596462
110.8523,82.91606,-0.7768559,0.9699246,3.596462
110.9034,114.3218,-0.8022953,0.9697599,3.596462
110.952,133.1398,-0.8092338,0.9697599,3.596462
111.0016,118.8991,-0.8531755,0.9699246,3.596462
111.0526,107.0743,-0.8948046,0.9699246,3.596462
111.1018,106.4386,-0.8924921,0.9699246,3.596462
111.1529,104.0227,-0.8601142,0.9699246,3.596462
111.2019,104.0227,-0.830048,0.9699246,3.590003
111.2514,104.4042,-0.8069213,0.9699246,3.590003
111.3024,95.63092,-0.7583536,0.9699246,3.590003
111.3516,90.67213,-0.6843466,0.9699246,3.590003
111.4026,88.25631,-0.5108917,0.9699246,3.590003
111.452,86.73053,-0.3559391,0.9697599,3.590003
111.502,85.58618,-0.2079243,0.9699246,3.590003
111.5525,83.93326,-0.01365526,0.9697599,3.590003
111.602,82.91606,0.09966906,0.9697599,3.590003
111.6534,111.2702,0.2176177,0.9697599,3.583544
111.702,131.1054,0.3425049,0.9697599,3.590003
111.7518,118.3905,0.3980104,0.9697599,3.590003
111.8028,105.1671,0.4465781,0.9699246,3.583544
111.8513,102.1155,0.4951458,0.9699246,3.590003
111.9023,101.0983,0.5830291,0.9697599,3.590003
111.9516,103.6413,0.6824762,0.9699246,3.590003
112.0021,106.0571,0.7749856,0.9697599,3.583544
112.0533,102.7513,0.8420548,0.9697599,3.583544
112.102,92.96081,0.8952476,0.9697599,3.583544
112.1535,89.78209,0.9553783,0.9697599,3.583544
112.2014,87.36626,0.9946948,0.9699246,3.583544
112.2525,85.20473,1.029386,0.9697599,3.583544
112.3025,84.0604,1.064077,0.9697599,3.583544
112.3524,84.44184,1.068703,0.9697599,3.583544
112.4035,117.119,1.071014,0.9697599,3.583544
112.4524,124.748,1.059451,0.9699246,3.583544
112.5023,124.3665,1.031698,0.9697599,3.583544
112.5523,95.63092,0.9669421,0.9699246,3.583544
112.6018,89.40065,0.8674949,0.9699246,3.583544
112.6533,98.1739,0.756484,0.9697599,3.577085
112.7021,105.5485,0.6130944,0.9697599,3.583544
112.7521,106.3114,0.478956,0.9697599,3.577085
112.803,91.81647,0.4003238,0.9699246,3.577085
112.8521,87.49342,0.2962507,0.9699246,3.577085
112.9033,85.45904,0.1644249,0.9699246,3.577085
112.9521,84.44184,0.08579271,0.9697599,3.577085
113.0018,84.0604,-0.004404069,0.9699246,3.583544
113.0523,84.0604,-0.08534965,0.9697599,3.583544
113.1023,93.08795,-0.2079243,0.9699246,3.577085
113.1524,128.5624,-0.3466879,0.9699246,3.577085
113.2019,129.3253,-0.4183823,0.9697599,3.577085
113.2522,101.0983,-0.5918372,0.9697599,3.577085
113.3031,94.48659,-0.6612191,0.9697599,3.577085
113.3517,94.48659,-0.6612191,0.9697599,3.577085
113.4028,104.5313,-0.6797206,0.9697599,3.577085
113.4521,105.6757,-0.6912844,0.9697599,3.577085
113.5013,106.0571,-0.698223,0.9697599,3.577085
113.5533,89.5278,-0.693597,0.9697599,3.577085
113.6024,87.49342,-0.7282883,0.9699246,3.570625
113.6527,85.96764,-0.7282883,0.9699246,3.577085
113.7023,84.18755,-0.8069213,0.9697599,3.570625
113.7526,83.42466,-0.813859,0.9697599,3.570625
113.803,86.34908,-0.8624267,0.9697599,3.577085
113.8523,108.2186,-0.8832408,0.9697599,3.570625
113.9034,130.8511,-0.9271833,0.9699246,3.570625
113.9518,106.6929,-0.9641864,0.9697599,3.570625
114.0017,105.0399,-1.00119,0.9697599,3.570625
114.0535,103.1327,-0.9734376,0.9697599,3.570625
114.1018,103.0055,-0.9225574,0.9699246,3.570625
114.1535,103.8956,-0.9156196,0.9699246,3.570625
114.2022,106.5657,-0.9318085,0.9697599,3.570625
114.2517,94.61374,-0.9456849,0.9699246,3.564166
114.3028,92.19792,-0.9942526,0.9699246,3.570625
114.3521,88.25631,-0.9896265,0.9697599,3.570625
114.4028,86.34908,-0.9017432,0.9699246,3.570625
114.4514,85.20473,-0.9225574,0.9699246,3.570625
114.5026,84.69615,-0.7606662,0.9697599,3.564166
114.5536,105.6757,-0.6357789,0.9699246,3.570625
114.602,129.7068,-0.4438224,0.9697599,3.564166
114.6529,126.0195,-0.2125495,0.9697599,3.564166
114.7015,105.5485,-0.02753162,0.9697599,3.564166
114.7514,100.7169,0.1066068,0.9699246,3.564166
114.8032,99.69969,0.2638728,0.9699246,3.564166
114.8524,101.9884,0.3864475,0.9699246,3.564166
114.903,104.1499,0.4766434,0.9697599,3.564166
114.9517,106.3114,0.5645276,0.9697599,3.564166
115.0025,93.46941,0.6778511,0.9697599,3.564166
115.0534,89.14634,0.7842368,0.9699246,3.564166
115.102,88.63776,0.8698084,0.9699246,3.557707
115.1529,86.73053,0.9368759,0.9699246,3.564166
115.2023,84.82329,0.9808193,0.9699246,3.557707
115.2515,85.33189,1.001633,0.9699246,3.557707
115.3028,110.1259,1.024761,0.9697599,3.557707
115.3514,129.071,1.057139,0.9699246,3.557707
115.4035,112.2874,1.075641,0.9697599,3.557707
115.4516,98.30104,1.087203,0.9699246,3.557707
115.5019,91.18073,1.114958,0.9697599,3.564166
115.5524,96.39381,1.145022,0.9697599,3.557707
115.6022,105.93,1.156586,0.9697599,3.551248
115.6524,106.6929,1.154273,0.9699246,3.557707
115.702,93.59654,1.124208,0.9697599,3.557707
115.752,87.87486,1.043262,0.9699246,3.557707
115.8033,86.22193,0.8975611,0.9697599,3.557707
115.8517,84.82329,0.8027383,0.9699246,3.557707
115.9025,84.18755,0.7056038,0.9700893,3.557707
115.9519,85.84048,0.5945929,0.9699246,3.557707
116.0024,105.93,0.4581419,0.9697599,3.551248
116.0532,127.9267,0.3910727,0.9699246,3.551248
116.102,126.1466,0.2869995,0.9699246,3.551248
116.1533,91.30788,0.1574871,0.9699246,3.551248
116.202,87.49342,0.115858,0.9697599,3.551248
116.2516,98.55534,0.08810529,0.9699246,3.551248
116.3035,104.6585,0.02334865,0.9700893,3.551248
116.3518,106.0571,-0.05065832,0.9699246,3.551248
116.403,90.41783,-0.09922601,0.9699246,3.557707
116.4518,85.58618,-0.1547315,0.9699246,3.551248
116.5014,83.29751,-0.2333644,0.9699246,3.544789
116.5524,82.66177,-0.3374367,0.9697599,3.551248
116.6024,82.02603,-0.4923902,0.9699246,3.551248
116.653,87.62056,-0.6704702,0.9697599,3.551248
116.702,98.80965,-0.7190371,0.9699246,3.551248
116.7522,133.7755,-0.7537284,0.9697599,3.544789
116.8024,124.748,-0.7745425,0.9697599,3.544789
116.8522,106.0571,-0.8231102,0.9699246,3.551248
116.9024,101.4798,-0.8231102,0.9699246,3.544789
116.9522,100.844,-0.7814811,0.9697599,3.544789
117.0015,104.9128,-0.7768559,0.9697599,3.544789
117.0528,107.71,-0.7791685,0.9697599,3.544789
117.1016,95.75809,-0.7999827,0.9699246,3.544789
117.1537,90.92643,-0.8254228,0.9699246,3.544789
117.2023,88.25631,-0.8277354,0.9697599,3.544789
117.2524,86.98483,-0.8462378,0.9697599,3.544789
117.3028,85.84048,-0.8277354,0.9699246,3.544789
117.3514,86.34908,-0.8323614,0.9699246,3.544789
117.403,103.6413,-0.8231102,0.9699246,3.544789
117.4518,133.3941,-0.7444772,0.9697599,3.544789
117.5019,130.2153,-0.5733357,0.9699246,3.538329
117.553,107.2015,-0.4230084,0.9697599,3.538329
117.6017,103.6413,-0.2218007,0.9697599,3.538329
117.6528,102.2427,0.0002210998,0.9699246,3.538329
117.7023,104.6585,0.1528619,0.9699246,3.538329
117.7524,106.5657,0.3008759,0.9697599,3.538329
117.8035,107.9643,0.4026364,0.9697599,3.538329
117.8524,92.7065,0.4905198,0.9697599,3.538329
117.9035,88.89205,0.6038441,0.9697599,3.538329
117.9524,87.11198,0.7125424,0.9697599,3.538329
118.0024,86.47623,0.8119895,0.9697599,3.538329
118.0533,86.34908,0.8859974,0.9697599,3.53187
118.1021,86.34908,0.929939,0.9699246,3.53187
118.1533,88.38345,0.9738806,0.9699246,3.538329
118.2018,130.2153,1.010884,0.9699246,3.53187
118.2522,105.4214,1.038636,0.9699246,3.53187
118.3024,101.8612,1.066389,0.9697599,3.53187
118.3524,95.50377,1.112644,0.9697599,3.53187
118.403,102.7513,1.156586,0.9697599,3.53187
118.452,107.9643,1.188964,0.9697599,3.53187
118.5019,108.3458,1.202841,0.9697599,3.53187
118.5536,93.72369,1.202841,0.9699246,3.538329
118.6021,91.56216,1.175088,0.9697599,3.53187
118.6533,88.38345,1.149647,0.9697599,3.53187
118.7016,87.62056,1.09183,0.9699246,3.53187
118.7524,86.47623,1.013197,0.9699246,3.53187
118.8035,96.52097,0.9137501,0.9699246,3.53187
118.8519,120.2978,0.8281785,0.9697599,3.53187
118.9025,127.5452,0.6963526,0.9699246,3.53187
118.9524,102.3698,0.5552764,0.9697599,3.53187
119.002,96.01237,0.4604545,0.9697599,3.53187
119.053,93.72369,0.3795089,0.9699246,3.53187
119.1025,104.5313,0.289313,0.9699246,3.53187
119.1531,107.9643,0.2129925,0.9699246,3.525411
119.2018,106.82,0.1459233,0.9697599,3.53187
119.2515,90.67213,0.05572654,0.9697599,3.525411
119.303,89.5278,-0.05065832,0.9699246,3.525411
119.3525,87.36626,-0.1131024,0.9697599,3.525411
119.4024,86.09478,-0.2009857,0.9699246,3.525411
119.4514,85.20473,-0.330499,0.9697599,3.525411
119.502,92.96081,-0.4692626,0.9699246,3.525411
119.553,126.4009,-0.5710223,0.9697599,3.525411
119.6025,134.157,-0.6288412,0.9699246,3.525411
119.6525,109.6173,-0.6912844,0.9697599,3.525411
119.7022,106.5657,-0.7652922,0.9699246,3.525411
119.7521,105.0399,-0.7352269,0.9697599,3.525411
119.803,105.8028,-0.7167245,0.9699246,3.525411
119.8521,106.3114,-0.7213506,0.9699246,3.525411
119.9032,108.7272,-0.7097868,0.9699246,3.518952
119.9515,96.01237,-0.7097868,0.9699246,3.525411
120.0023,93.08795,-0.7375395,0.9699246,3.525411
120.0535,90.92643,-0.756041,0.9699246,3.518952
120.1014,90.54498,-0.7514158,0.9699246,3.518952
120.1534,87.87486,-0.7837937,0.9697599,3.518952
120.2022,86.98483,-0.7884189,0.9699246,3.518952
120.2522,96.01237,-0.8161716,0.9697599,3.518952
120.3032,134.4113,-0.8022953,0.9697599,3.518952
120.352,127.6724,-0.7421647,0.9697599,3.518952
120.403,111.0159,-0.6959104,0.9697599,3.518952
120.4515,108.7272,-0.6010885,0.9699246,3.512493
120.5016,106.0571,-0.3420628,0.9697599,3.518952
120.5526,106.1843,-0.1269787,0.9697599,3.518952
120.6025,106.9472,0.03028726,0.9697599,3.512493
120.6533,101.7341,0.1806147,0.9699246,3.518952
120.702,94.35944,0.3008759,0.9699246,3.518952
120.7519,91.56216,0.4396403,0.9697599,3.512493
120.803,89.5278,0.5668402,0.9697599,3.512493
120.8525,88.25631,0.6477857,0.9699246,3.512493
120.9025,87.62056,0.7356691,0.9699246,3.512493
120.9526,86.73053,0.7865494,0.9697599,3.512493
121.0025,86.34908,0.8258659,0.9699246,3.512493
121.0535,104.277,0.8651815,0.9699246,3.512493
121.102,124.3665,0.9391893,0.9697599,3.512493
121.1534,115.7204,1.029386,0.9699246,3.512493
121.2017,108.6001,1.059451,0.9699246,3.512493
121.2515,102.7513,1.096455,0.9697599,3.506034
121.3035,101.3526,1.156586,0.9699246,3.512493
121.3518,105.93,1.193589,0.9697599,3.506034
121.4026,107.5829,1.214405,0.9697599,3.512493
121.4525,107.5829,1.223655,0.9699246,3.512493
121.5023,93.08795,1.22828,0.9697599,3.506034
121.5529,90.29069,1.221342,0.9697599,3.506034
121.6022,88.38345,1.175088,0.9697599,3.512493
121.6532,87.49342,1.124208,0.9699246,3.506034
121.7016,86.73053,1.017822,0.9699246,3.506034
121.7525,86.22193,0.904498,0.9699246,3.506034
121.8036,95.75809,0.8166147,0.9699246,3.506034
121.8523,125.0023,0.7194802,0.9699246,3.506034
121.9035,122.4593,0.6454732,0.9699246,3.506034
121.9516,100.5897,0.5275237,0.9699246,3.506034
122.0025,90.67213,0.462767,0.9697599,3.506034
122.0536,93.34225,0.3980104,0.9697599,3.506034
122.102,104.277,0.3448184,0.9699246,3.506034
122.153,105.5485,0.2708106,0.9697599,3.506034
122.2015,100.2083,0.1968036,0.9697599,3.506034
122.2515,89.14634,0.1227958,0.9697599,3.506034
122.3036,85.58618,0.05110138,0.9700893,3.506034
122.3517,84.0604,-0.04140798,0.9697599,3.499574
122.4025,83.42466,-0.1524189,0.9697599,3.499574
122.4525,82.02603,-0.2449282,0.9699246,3.499574
122.5024,82.40748,-0.4415099,0.9697599,3.499574
122.5531,115.8476,-0.5224555,0.9697599,3.499574
122.6017,131.3597,-0.5432696,0.9699246,3.499574
122.6529,121.0607,-0.5733357,0.9697599,3.499574
122.7017,107.2015,-0.6404049,0.9697599,3.499574
122.7515,102.1155,-0.6912844,0.9697599,3.499574
122.8035,100.2083,-0.6542813,0.9697599,3.493115
122.8517,100.9712,-0.6427175,0.9699246,3.493115
122.9029,103.6413,-0.6542813,0.9699246,3.499574
122.9516,103.5141,-0.6681577,0.9699246,3.499574
123.0022,90.67213,-0.6635317,0.9697599,3.493115
123.0533,86.34908,-0.6404049,0.9697599,3.493115
123.1025,85.96764,-0.603401,0.9697599,3.493115
123.1528,84.0604,-0.5386444,0.9697599,3.493115
123.2017,82.91606,-0.5201429,0.9699246,3.493115
123.2515,81.39028,-0.4808264,0.9699246,3.493115
123.3028,92.45221,-0.3605643,0.9699246,3.493115
123.3515,126.9095,-0.1593566,0.9697599,3.493115
123.4037,129.4525,0.02103607,0.9697599,3.493115
123.4525,103.7684,0.1551745,0.9699246,3.493115
123.5025,102.6241,0.268498,0.9699246,3.493115
123.5525,99.44539,0.4026364,0.9699246,3.493115
123.6015,99.82683,0.5252111,0.9697599,3.486656
123.6526,103.1327,0.6107818,0.9699246,3.493115
123.7027,105.5485,0.714855,0.9699246,3.486656
123.7517,92.7065,0.8143021,0.9697599,3.493115
123.8025,88.7649,0.9253138,0.9699246,3.486656
123.8524,86.47623,0.9646303,0.9699246,3.486656
123.903,84.44184,1.006259,0.9697599,3.486656
123.9515,84.3147,1.047889,0.9699246,3.486656
124.0027,83.17036,1.071014,0.9699246,3.486656
124.0527,92.57936,1.094142,0.9697599,3.486656
124.1018,102.1155,1.128833,0.9697599,3.480197
124.153,125.8923,1.172775,0.9697599,3.486656
124.202,101.8612,1.193589,0.9699246,3.486656
124.252,92.7065,1.209778,0.9697599,3.480197
124.3033,89.5278,1.242158,0.9699246,3.486656
124.3523,99.06393,1.272222,0.9699246,3.480197
124.4025,104.4042,1.283786,0.9697599,3.486656
124.4522,104.5313,1.290724,0.9699246,3.480197
124.5018,90.41783,1.283786,0.9697599,3.480197
124.5536,85.07759,1.256033,0.9699246,3.480197
124.6015,83.29751,1.244469,0.9699246,3.480197
124.6536,82.91606,1.235219,0.9699246,3.480197
124.7025,82.15317,1.195902,0.9699246,3.480197
124.7527,83.55181,1.14271,0.9699246,3.480197
124.8025,99.95398,1.09183,0.9697599,3.480197
124.8526,125.1294,1.031698,0.9697599,3.480197
124.9035,116.9919,0.9646303,0.9700893,3.480197
124.9522,93.85085,0.8813704,0.9697599,3.480197
125.0016,84.569,0.8374296,0.9699246,3.480197
125.0529,95.12233,0.7772982,0.9697599,3.480197
125.1016,101.7341,0.6755385,0.9699246,3.480197
125.1528,104.4042,0.6015307,0.9697599,3.473738
125.2025,91.05358,0.5205851,0.9697599,3.480197
125.2525,85.71333,0.421138,0.9699246,3.473738
