t_sec,abp_mmHg,resp_arbunit,spo2_unitless,scon_muS
0,0.5237532,0.1063899,1.269694,2.743852
0.04961387,0.3966055,0.05911323,1.269859,2.737393
0.1003597,0.5237532,-0.03544002,1.269859,2.743852
0.1501867,0.6509008,-0.1502561,1.269694,2.743852
0.2011599,0.6509008,-0.2785791,1.269694,2.743852
0.2498591,0.6509008,-0.3596254,1.269694,2.737393
0.2998358,0.5237532,-0.4406717,1.269694,2.737393
0.3506523,0.5237532,-0.535225,1.269694,2.743852
0.4002538,0.6509008,-0.6432852,1.269694,2.743852
0.4502459,0.6509008,-0.7445943,1.269694,2.743852
0.4993533,0.5237532,-0.7986269,1.269694,2.737393
0.5493348,0.6509008,-0.8188897,1.269694,2.737393
0.6003252,0.5237532,-0.8256407,1.269694,2.743852
0.6503577,0.3966055,-0.8594104,1.269859,2.737393
0.7012699,0.5237532,-0.8796732,1.269859,2.737393
0.7496265,0.6509008,-0.9539636,1.269694,2.737393
0.7993146,0.7780523,-0.9809824,1.269859,2.737393
0.8508306,0.6509008,-1.007996,1.269694,2.737393
0.900269,0.5237532,-1.014752,1.269859,2.737393
0.9507332,0.6509008,-1.062029,1.269694,2.737393
0.9995031,0.6509008,-1.06878,1.269694,2.737393
1.04948,0.5237532,-1.089043,1.269859,2.737393
1.099655,0.5237532,-1.156582,1.269859,2.737393
1.15102,0.5237532,-1.298412,1.269859,2.737393
1.199894,0.6509008,-1.359195,1.269694,2.737393
1.249614,0.6509008,-1.399721,1.269859,2.737393
1.300335,0.6509008,-1.406477,1.269859,2.737393
1.350023,0.5237532,-1.419984,1.269694,2.737393
1.400859,0.6509008,-1.514537,1.269694,2.737393
1.450112,0.6509008,-1.5348,1.269694,2.737393
1.499593,0.5237532,-1.528044,1.269694,2.737393
1.54935,0.6509008,-1.507781,1.269694,2.730934
1.600338,0.6509008,-1.474011,1.269694,2.730934
1.651101,0.5237532,-1.446998,1.269694,2.737393
1.699247,0.5237532,-1.419984,1.269859,2.737393
1.749977,0.6509008,-1.406477,1.269859,2.737393
1.800017,0.6509008,-1.386214,1.269859,2.737393
1.850013,0.6509008,-1.379458,1.269694,2.730934
1.901142,0.5237532,-1.338938,1.269694,2.737393
1.94964,0.6509008,-1.298412,1.269694,2.730934
1.999642,0.6509008,-1.237628,1.269859,2.737393
2.049644,0.6509008,-1.203859,1.269694,2.737393
2.100016,0.5237532,-1.190352,1.269694,2.737393
2.150992,0.5237532,-1.298412,1.269859,2.737393
2.19962,0.7780523,-1.325431,1.269694,2.730934
2.249614,0.6509008,-1.386214,1.269694,2.730934
2.299467,0.5237532,-1.413228,1.269694,2.730934
2.349351,0.6509008,-1.386214,1.269694,2.730934
2.400615,0.6509008,-1.325431,1.269694,2.730934
2.449352,0.5237532,-1.271398,1.269694,2.730934
2.499369,0.5237532,-1.143075,1.269694,2.730934
2.549973,0.5237532,-0.913443,1.269694,2.730934
2.599718,0.6509008,-0.6838108,1.269694,2.730934
2.650862,0.6509008,-0.5082112,1.269694,2.730934
2.699614,0.6509008,-0.3663764,1.269694,2.730934
2.74939,0.5237532,-0.2313024,1.269694,2.730934
2.799613,0.6509008,-0.09622353,1.269694,2.730934
2.849608,0.5237532,-0.008426228,1.269859,2.730934
2.900461,0.5237532,0.09288295,1.269694,2.730934
2.950136,0.5237532,0.1671783,1.26953,2.730934
2.999259,0.6509008,0.2819944,1.269694,2.730934
3.049416,0.5237532,0.3832986,1.269694,2.730934
3.099396,0.6509008,0.4846078,1.26953,2.730934
3.150995,0.5237532,0.4981147,1.269694,2.730934
3.199402,0.6509008,0.5589032,1.269694,2.730934
3.249359,0.6509008,0.5589032,1.269859,2.730934
3.299323,0.5237532,0.585917,1.269859,2.724475
3.350454,0.6509008,0.6061798,1.269859,2.730934
3.400368,0.6509008,0.6669633,1.269694,2.730934
3.450457,0.6509008,0.7345028,1.269859,2.724475
3.500425,0.5237532,0.71424,1.269859,2.724475
3.549884,0.5237532,0.7209959,1.269859,2.724475
3.599905,0.5237532,0.8020422,1.269859,2.730934
3.651,0.5237532,0.835812,1.269694,2.730934
3.699617,0.5237532,0.7547656,1.269694,2.724475
3.750357,0.6509008,0.707484,1.269694,2.730934
3.800413,0.5237532,0.7007331,1.269694,2.724475
3.850478,0.5237532,0.6939771,1.269859,2.730934
3.900453,0.6509008,0.5994239,1.269859,2.724475
3.950403,0.5237532,0.5183775,1.269694,2.724475
4.000445,0.5237532,0.4778568,1.269694,2.730934
4.049437,0.5237532,0.4103174,1.269859,2.730934
4.100342,0.5237532,0.336022,1.269859,2.724475
4.150884,0.5237532,0.2279619,1.269694,2.724475
4.200882,0.5237532,0.03209944,1.269694,2.724475
4.249601,0.6509008,-0.04894691,1.269694,2.724475
4.299554,0.5237532,-0.1435001,1.269694,2.724475
4.349715,0.5237532,-0.2785791,1.269694,2.724475
4.400711,0.6509008,-0.406902,1.269694,2.724475
4.450714,0.5237532,-0.5217181,1.270024,2.724475
4.499466,0.5237532,-0.663548,1.269694,2.724475
4.549933,0.5237532,-0.7310874,1.269694,2.724475
4.600087,0.6509008,-0.7783641,1.269694,2.724475
4.650956,0.3966055,-0.8256407,1.269694,2.724475
4.700962,0.5237532,-0.8931801,1.269859,2.730934
4.750355,0.6509008,-0.9337058,1.269694,2.724475
4.800388,0.6509008,-0.9674755,1.269694,2.730934
4.850126,0.6509008,-0.9877334,1.269859,2.724475
4.901249,0.5237532,-0.9877334,1.269859,2.724475
4.950736,0.5237532,-1.048522,1.269694,2.724475
4.999378,0.5237532,-1.062029,1.269859,2.724475
5.050477,0.5237532,-1.041766,1.269694,2.724475
5.099945,0.5237532,-1.129568,1.269694,2.724475
5.150686,0.5237532,-1.298412,1.269694,2.724475
5.201594,0.5237532,-1.406477,1.269694,2.724475
5.249441,0.5237532,-1.460505,1.269694,2.724475
5.300474,0.5237532,-1.474011,1.269859,2.724475
5.349681,0.5237532,-1.494274,1.26953,2.724475
5.401591,0.5237532,-1.582077,1.269694,2.724475
5.451443,0.5237532,-1.595583,1.269694,2.724475
5.499958,0.5237532,-1.602334,1.269859,2.724475
5.550166,0.6509008,-1.555058,1.269694,2.724475
5.599705,0.5237532,-1.521288,1.269694,2.724475
5.650952,0.5237532,-1.50103,1.269859,2.724475
5.700954,0.5237532,-1.474011,1.269859,2.724475
5.749538,0.5237532,-1.46726,1.269694,2.718016
5.800203,0.5237532,-1.453754,1.269694,2.724475
5.849826,0.6509008,-1.419984,1.269694,2.724475
5.901078,0.5237532,-1.359195,1.269859,2.724475
5.950907,0.269454,-1.345688,1.269694,2.718016
6.000122,0.6509008,-1.284905,1.269859,2.724475
6.050082,0.5237532,-1.244384,1.269859,2.724475
6.100076,0.3966055,-1.379458,1.269694,2.718016
6.150544,0.5237532,-1.440242,1.269859,2.718016
6.201446,0.5237532,-1.507781,1.269859,2.724475
6.250037,0.6509008,-1.507781,1.269859,2.718016
6.299956,0.5237532,-1.494274,1.269859,2.718016
6.349786,0.5237532,-1.514537,1.26953,2.718016
6.400842,0.6509008,-1.528044,1.269859,2.724475
6.450841,0.5237532,-1.480767,1.269859,2.718016
6.50033,0.5237532,-1.440242,1.269859,2.718016
6.550317,0.6509008,-1.392965,1.269859,2.718016
6.600083,0.6509008,-1.325431,1.269694,2.718016
6.651284,0.6509008,-1.251135,1.269859,2.718016
6.701368,0.6509008,-1.143075,1.269694,2.718016
6.750114,0.6509008,-1.03501,1.269859,2.718016
6.800627,0.6509008,-0.8391476,1.269859,2.718016
6.850362,0.6509008,-0.6365342,1.270024,2.718016
6.901634,0.6509008,-0.4879484,1.269694,2.718016
6.95164,0.6509008,-0.3461185,1.269694,2.718016
7.000365,0.6509008,-0.1840258,0.9798071,2.718016
7.05057,0.6509008,-0.008426228,0.9798071,2.718016
7.100365,0.3966055,0.0253435,0.9798071,2.718016
7.15132,0.6509008,0.086132,0.9798071,2.718016
7.201091,0.5237532,0.1604224,0.9798071,2.718016
7.249825,0.6509008,0.2482247,0.9798071,2.718016
7.299834,0.5237532,0.336022,0.9798071,2.718016
7.35036,0.6509008,0.3968105,0.9798071,2.718016
7.400533,0.5237532,0.4981147,0.9799718,2.711556
7.450601,0.6509008,0.6264377,0.9798071,2.718016
7.500334,0.5237532,0.6602074,0.9798071,2.718016
7.55036,0.6509008,0.7209959,0.9798071,2.718016
7.599593,0.6509008,0.8425629,0.9796425,2.718016
7.65132,0.6509008,0.9168583,0.9799718,2.718016
7.701318,0.6509008,0.950628,0.9798071,2.711556
7.750553,0.5237532,0.9708859,0.9798071,2.718016
7.800166,0.6509008,1.038425,0.9798071,2.718016
7.850057,0.5237532,1.112721,0.9798071,2.711556
7.901314,0.5237532,1.153241,0.9798071,2.718016
7.951312,0.5237532,1.159997,0.9798071,2.718016
8.000532,0.6509008,1.234288,0.9799718,2.718016
8.050445,0.5237532,1.261302,0.9798071,2.718016
8.100315,0.5237532,1.119472,0.9798071,2.718016
8.151191,0.5237532,1.058688,0.9799718,2.711556
8.200941,0.5237532,1.004656,0.9798071,2.718016
8.250565,0.5237532,1.031674,0.9799718,2.711556
8.300564,0.5237532,0.9236093,0.9798071,2.711556
8.350434,0.5237532,0.8155491,0.9798071,2.711556
8.401439,0.6509008,0.7412537,0.9796425,2.711556
8.451188,0.6509008,0.71424,0.9798071,2.718016
8.499939,0.5237532,0.5994239,0.9796425,2.711556
8.549962,0.6509008,0.4913637,0.9796425,2.711556
8.600327,0.5237532,0.4238243,0.9798071,2.711556
8.651432,0.6509008,0.329271,0.9798071,2.711556
8.701312,0.5237532,0.2414688,0.9798071,2.711556
8.749932,0.5237532,0.1401596,0.9798071,2.711556
8.799673,0.5237532,0.1063899,0.9798071,2.711556
8.850072,0.5237532,0.03209944,0.9798071,2.711556
8.900936,0.5237532,-0.05570285,0.9798071,2.711556
8.950608,0.6509008,-0.1435001,0.9798071,2.711556
8.999551,0.6509008,-0.2042837,0.9898543,2.711556
9.050707,0.6509008,-0.3326116,0.9898543,2.711556
9.100192,0.5237532,-0.5217181,0.9898543,2.711556
9.151185,0.6509008,-0.6703039,0.9896896,2.711556
9.201309,0.6509008,-0.7513502,0.9896896,2.711556
9.250723,0.5237532,-0.8594104,0.9900191,2.711556
9.300182,0.5237532,-1.082287,0.9900191,2.711556
9.349627,0.5237532,-1.244384,0.9896896,2.711556
9.400702,0.6509008,-1.311919,0.9896896,2.711556
9.451378,0.7780523,-1.372707,0.9896896,2.705097
9.500714,0.6509008,-1.419984,0.9898543,2.711556
9.549801,0.6509008,-1.460505,0.9898543,2.705097
9.599588,0.5237532,-1.480767,0.9898543,2.705097
9.651556,0.5237532,-1.541551,0.9900191,2.705097
9.701433,0.6509008,-1.56857,0.9898543,2.705097
9.750178,0.6509008,-1.582077,0.9898543,2.705097
9.800055,0.7780523,-1.56857,0.9898543,2.711556
9.849802,0.5237532,-1.56857,0.9898543,2.711556
9.900755,0.5237532,-1.56857,0.9900191,2.711556
9.950814,0.6509008,-1.5348,0.9898543,2.711556
10.00054,0.6509008,-1.629353,0.9898543,2.705097
10.05007,0.5237532,-1.703644,0.9900191,2.705097
10.10009,0.6509008,-1.798197,0.9896896,2.711556
10.15094,0.6509008,-1.811709,0.9896896,2.705097
10.20089,0.5237532,-1.791446,0.9896896,2.705097
10.24993,0.6509008,-1.791446,0.9898543,2.705097
10.29981,0.6509008,-1.825216,0.9898543,2.711556
10.3498,0.6509008,-1.730662,0.9898543,2.705097
10.40107,0.6509008,-1.696893,0.9898543,2.705097
10.45078,0.5237532,-1.649616,0.9896896,2.711556
10.50068,0.6509008,-1.649616,0.9898543,2.705097
10.55068,0.6509008,-1.669874,0.9898543,2.698638
10.60068,0.5237532,-1.649616,0.9896896,2.705097
10.65142,0.6509008,-1.649616,0.9898543,2.698638
10.70143,0.5237532,-1.64286,0.9898543,2.705097
10.75018,0.6509008,-1.615846,0.9896896,2.705097
10.80017,0.7780523,-1.588827,0.9898543,2.705097
10.84972,0.9051962,-1.615846,0.9898543,2.705097
10.90121,0.5237532,-1.588827,0.9896896,2.705097
10.95105,0.6509008,-1.555058,0.9898543,2.705097
10.99969,0.6509008,-1.629353,0.9896896,2.705097
11.05042,0.6509008,-1.64286,0.9898543,2.705097
11.1003,0.5237532,-1.64286,0.9898543,2.705097
11.15143,0.6509008,-1.622597,0.9896896,2.705097
11.20142,0.6509008,-1.56857,0.9896896,2.705097
11.25072,0.5237532,-1.494274,0.9898543,2.705097
11.3004,0.6509008,-1.379458,0.9898543,2.705097
11.35005,0.6509008,-1.271398,0.9898543,2.705097
11.4013,0.7780523,-1.197103,0.9896896,2.698638
11.45166,0.6509008,-1.129568,0.9896896,2.698638
11.50004,0.5237532,-1.109305,0.9898543,2.698638
11.54981,0.6509008,-1.102549,0.9896896,2.698638
11.5999,0.6509008,-1.03501,0.9898543,2.705097
11.65079,0.5237532,-1.00124,0.9898543,2.698638
11.70167,0.6509008,-0.913443,0.9896896,2.705097
11.75042,0.6509008,-0.7716131,0.9896896,2.698638
11.80042,0.6509008,-0.6095204,0.9896896,2.698638
11.84992,0.6509008,-0.4811924,0.9896896,2.705097
11.90104,0.6509008,-0.3055928,0.9896896,2.705097
11.95091,0.6509008,-0.1097304,0.9896896,2.705097
12.00091,0.5237532,0.086132,0.9898543,2.705097
12.0509,0.5237532,0.329271,0.9898543,2.705097
12.10042,0.7780523,0.3562848,0.9896896,2.705097
12.15129,0.5237532,0.3630408,0.9896896,2.711556
12.20119,0.5237532,0.4035614,0.9896896,2.711556
12.24976,0.6509008,0.4373312,0.9898543,2.698638
12.30088,0.5237532,0.5116266,0.9898543,2.698638
12.35086,0.5237532,0.5656542,0.9896896,2.692179
12.40156,0.5237532,0.6534564,0.9898543,2.698638
12.45176,0.5237532,0.7547656,0.9898543,2.698638
12.50021,0.6509008,0.8020422,0.9896896,2.698638
12.55018,0.6509008,0.835812,0.9896896,2.698638
12.60004,0.6509008,0.9371161,0.9898543,2.698638
12.65176,0.6509008,0.9776418,0.9898543,2.698638
12.70166,0.6509008,1.004656,0.9898543,2.698638
12.75033,0.5237532,1.038425,0.9896896,2.698638
12.80033,1.032348,1.051932,0.9898543,2.705097
12.85074,0.5237532,1.180255,0.9898543,2.692179
12.90135,0.7780523,1.180255,0.9898543,2.698638
12.95095,0.5237532,1.234288,0.9898543,2.698638
13.00054,0.5237532,1.268057,0.9898543,2.692179
13.05041,0.5237532,1.342348,0.9898543,2.692179
13.10095,0.5237532,1.227532,0.9896896,2.698638
13.15079,0.6509008,1.146485,0.9896896,2.692179
13.20078,0.9051962,1.092458,0.9896896,2.698638
13.25051,0.7780523,1.085702,0.9898543,2.698638
13.29993,0.5237532,0.9371161,0.9898543,2.698638
13.35079,0.6509008,0.8695817,0.9898543,2.692179
13.40192,0.7780523,0.8087932,0.9898543,2.692179
13.4515,0.7780523,0.8020422,0.9898543,2.698638
13.50053,0.7780523,0.71424,0.9898543,2.692179
13.55041,0.6509008,0.6061798,0.9898543,2.692179
13.60016,0.7780523,0.5589032,0.9896896,2.692179
13.65137,0.6509008,0.464345,0.9798071,2.692179
13.70154,0.5237532,0.3157642,0.9798071,2.692179
13.75028,0.6509008,0.1874362,0.9798071,2.692179
13.80028,0.6509008,0.1199017,0.9798071,2.692179
13.85028,0.5237532,0.05911323,0.9798071,2.692179
13.90102,0.5237532,-0.05570285,0.9798071,2.698638
13.95078,0.9051962,-0.2110396,0.9798071,2.692179
14.00028,0.6509008,-0.3528695,0.9796425,2.692179
14.05027,0.6509008,-0.5419809,0.9798071,2.698638
14.10053,0.5237532,-0.7445943,0.9798071,2.692179
14.15176,0.6509008,-0.913443,0.9798071,2.692179
14.20176,0.5237532,-1.03501,0.9796425,2.698638
14.25028,0.5237532,-1.156582,0.9799718,2.692179
14.29997,0.5237532,-1.217366,0.9799718,2.692179
14.35003,0.9051962,-1.305168,0.9798071,2.692179
14.4013,0.6509008,-1.359195,0.9796425,2.692179
14.4513,0.6509008,-1.406477,0.9798071,2.692179
14.50105,0.5237532,-1.426735,0.9798071,2.692179
14.54983,0.7780523,-1.453754,0.9798071,2.692179
14.60053,0.6509008,-1.460505,0.9798071,2.692179
14.65132,0.6509008,-1.487523,0.9896896,2.692179
14.70094,0.6509008,-1.494274,0.9896896,2.692179
14.75082,0.5237532,-1.480767,0.9896896,2.692179
14.80057,0.6509008,-1.528044,0.9898543,2.692179
14.85058,0.6509008,-1.56857,0.9896896,2.692179
14.90174,0.5237532,-1.514537,0.9898543,2.692179
14.95188,0.6509008,-1.56857,0.9898543,2.692179
15.00057,0.5237532,-1.629353,0.9896896,2.692179
15.05083,0.5237532,-1.723906,0.9898543,2.68572
15.10077,0.5237532,-1.777939,0.9898543,2.68572
15.15178,0.6509008,-1.78469,0.9898543,2.692179
15.20178,0.6509008,-1.78469,0.9898543,2.692179
15.25056,0.5237532,-1.81846,0.9898543,2.692179
15.30049,0.6509008,-1.804953,0.9896896,2.68572
15.35056,0.6509008,-1.78469,0.9898543,2.68572
15.40152,0.6509008,-1.744169,0.9896896,2.68572
15.45153,0.6509008,-1.690137,0.9896896,2.68572
15.50104,0.6509008,-1.663123,0.9896896,2.68572
15.55056,0.6509008,-1.64286,0.9896896,2.692179
15.60028,0.6509008,-1.615846,0.9898543,2.68572
15.65126,0.7780523,-1.575321,0.9898543,2.692179
15.70206,0.5237532,-1.494274,0.9896896,2.68572
15.75056,0.6509008,-1.419984,0.9896896,2.68572
15.80062,0.9051962,-1.392965,0.9898543,2.68572
15.85071,0.9051962,-1.332182,0.9898543,2.68572
15.90098,0.6509008,-1.217366,0.9896896,2.68572
15.95113,0.7780523,-1.197103,0.9896896,2.68572
16.00027,0.7780523,-1.129568,0.9896896,2.68572
16.05054,0.6509008,-1.041766,0.9898543,2.692179
16.10019,0.7780523,-0.9539636,0.9896896,2.68572
16.15112,0.7780523,-0.791871,0.9898543,2.68572
16.20112,0.6509008,-0.6365342,0.9898543,2.68572
16.25081,0.6509008,-0.4676856,0.9896896,2.68572
16.30048,0.6509008,-0.3528695,0.9898543,2.68572
16.3504,0.7780523,-0.2110396,0.9896896,2.68572
16.40168,0.6509008,-0.02193312,0.9896896,2.68572
16.45168,0.7780523,0.1469155,0.9896896,2.68572
16.50024,0.6509008,0.2279619,0.9898543,2.68572
16.55048,0.9051962,0.2955013,0.9896896,2.68572
16.59993,0.7780523,0.3765477,0.9896896,2.68572
16.65125,0.7780523,0.4035614,0.9896896,2.68572
16.70098,0.9051962,0.4103174,0.9898543,2.68572
16.75087,0.6509008,0.3968105,0.9896896,2.68572
16.80086,0.6509008,0.3765477,0.9898543,2.68572
16.84992,0.6509008,0.3495289,0.9900191,2.68572
16.90102,0.6509008,0.2279619,0.9896896,2.68572
16.9515,0.6509008,0.04560633,0.9898543,2.68572
17.00021,0.6509008,-0.1435001,0.9896896,2.68572
17.05152,0.6509008,-0.3055928,0.9898543,2.68572
17.10103,0.9051962,-0.4339158,0.9896896,2.68572
17.15085,0.5237532,-0.5825016,0.9896896,2.68572
17.2007,0.5237532,-0.7581012,0.9898543,2.68572
17.25055,0.7780523,-0.8864292,0.9898543,2.68572
17.30151,0.9051962,-0.9607196,0.9898543,2.68572
17.35064,0.6509008,-0.9944893,0.9898543,2.68572
17.40055,0.9051962,-1.014752,0.989525,2.68572
17.45053,0.5237532,-1.041766,0.9898543,2.68572
17.50061,0.6509008,-1.089043,0.9896896,2.68572
17.55221,0.6509008,-1.116056,0.9896896,2.68572
17.60121,0.6509008,-1.122812,0.9898543,2.68572
17.65005,0.7780523,-1.102549,0.9898543,2.68572
17.70005,0.7780523,-1.122812,0.9898543,2.68572
17.75005,0.6509008,-1.176845,0.9896896,2.68572
17.80128,0.5237532,-1.122812,0.9898543,2.68572
17.85005,0.6509008,-1.109305,0.9898543,2.68572
17.90005,0.6509008,-1.230872,0.9898543,2.68572
17.95003,0.6509008,-1.284905,0.9896896,2.679261
18.00115,0.6509008,-1.318675,0.9896896,2.68572
18.05137,0.9051962,-1.318675,0.9898543,2.68572
18.1002,0.7780523,-1.325431,0.9896896,2.68572
18.15049,0.6509008,-1.372707,0.9898543,2.68572
18.20051,0.7780523,-1.379458,0.9896896,2.68572
18.25105,0.6509008,-1.359195,0.9896896,2.68572
18.30213,0.7780523,-1.325431,0.9896896,2.68572
18.35023,0.5237532,-1.311919,0.9896896,2.68572
18.40032,0.7780523,-1.237628,0.9896896,2.68572
18.45023,0.9051962,-1.170089,0.9898543,2.68572
18.50035,0.9051962,-1.156582,0.9898543,2.68572
18.55146,0.6509008,-1.129568,0.9898543,2.68572
18.60035,0.9051962,-1.089043,0.9898543,2.68572
18.65024,0.9051962,-1.075536,0.9898543,2.692179
18.70124,0.7780523,-1.055273,0.9896896,2.68572
18.75005,0.5237532,-0.9539636,0.9896896,2.68572
18.80104,0.7780523,-0.9809824,0.9896896,2.68572
18.85117,0.7780523,-1.048522,0.9898543,2.68572
18.90104,0.9051962,-1.129568,0.9898543,2.68572
18.95075,0.5237532,-1.156582,0.9898543,2.68572
19.00033,0.9051962,-1.129568,0.9898543,2.692179
19.05132,0.5237532,-1.089043,0.9898543,2.692179
19.10008,0.6509008,-1.149826,0.9898543,2.68572
19.15004,0.5237532,-1.156582,0.9896896,2.68572
19.20003,0.5237532,-1.122812,0.9898543,2.68572
19.25005,0.6509008,-1.041766,0.9898543,2.68572
19.30134,0.5237532,-1.095798,0.9898543,2.692179
19.3508,0.6509008,-1.136319,0.9898543,2.692179
19.40079,0.7780523,-1.136319,0.9896896,2.692179
19.4508,0.5237532,-1.095798,0.9898543,2.692179
19.50079,0.6509008,-1.089043,0.9898543,2.68572
19.55172,0.5237532,-1.075536,0.9896896,2.68572
19.6005,0.6509008,-1.03501,0.9898543,2.692179
19.65049,0.5237532,-0.9944893,0.9898543,2.692179
19.70049,0.6509008,-1.095798,0.9898543,2.698638
19.75012,0.6509008,-1.136319,0.9896896,2.698638
19.80175,0.5237532,-1.183596,0.9898543,2.698638
19.85039,0.6509008,-1.176845,0.9898543,2.698638
19.90041,0.5237532,-1.183596,0.9898543,2.698638
19.95034,0.6509008,-1.190352,0.9896896,2.705097
20.0013,0.5237532,-1.176845,0.9898543,2.705097
20.05152,0.6509008,-1.143075,0.9900191,2.711556
20.1003,0.5237532,-1.014752,0.9898543,2.705097
20.15008,0.5237532,-0.8729173,0.9896896,2.705097
20.20026,0.6509008,-0.6973177,0.9896896,2.711556
20.25076,0.5237532,-0.5014552,0.9898543,2.711556
20.30191,0.6509008,-0.3258557,0.9896896,2.711556
20.35081,0.6509008,-0.163763,0.9896896,2.711556
20.40016,0.5237532,0.005085652,0.9898543,2.718016
20.45112,0.6509008,0.1874362,0.9898543,2.718016
20.50103,0.5237532,0.3090082,0.9896896,2.718016
20.55229,0.7780523,0.3832986,0.9898543,2.724475
20.60062,0.5237532,0.5183775,0.9896896,2.724475
20.65063,0.6509008,0.5926729,0.9900191,2.724475
20.70048,0.3966055,0.6331936,0.9898543,2.724475
20.75021,0.6509008,0.6939771,0.9898543,2.724475
20.80112,0.6509008,0.7750235,0.9896896,2.724475
20.85103,0.5237532,0.8695817,0.9898543,2.724475
20.90024,0.6509008,0.8965955,0.9896896,2.730934
20.95124,0.5237532,0.9303652,0.9896896,2.730934
21.00038,0.6509008,0.957379,0.9898543,2.730934
21.05161,0.6509008,0.9911487,0.9896896,2.730934
21.10039,0.5237532,0.9641349,0.9896896,2.730934
21.15035,0.6509008,0.9236093,0.9896896,2.730934
21.20086,0.6509008,0.9033464,0.9898543,2.737393
21.25086,0.7780523,0.9033464,0.9896896,2.737393
21.30212,0.5237532,0.7885303,0.9898543,2.737393
21.35047,0.6509008,0.6804702,0.9898543,2.737393
21.40087,0.6509008,0.5589032,0.9896896,2.737393
21.45048,0.6509008,0.4508381,0.9898543,2.737393
21.5004,0.5237532,0.2212059,0.9898543,2.743852
21.55119,0.5237532,0.07937606,0.9898543,2.743852
21.60045,0.7780523,-0.008426228,0.9898543,2.737393
21.65047,0.9051962,-0.1299933,0.9898543,2.743852
21.70037,0.6509008,-0.2920859,0.9896896,2.743852
21.75024,0.6509008,-0.3798882,0.9896896,2.743852
21.80158,0.6509008,-0.4406717,0.9898543,2.743852
21.85124,0.5237532,-0.4744415,0.9898543,2.750311
21.90123,0.5237532,-0.5217181,0.9898543,2.743852
21.95123,0.5237532,-0.5757506,0.9896896,2.750311
22.00103,0.5237532,-0.6027644,0.9896896,2.750311
22.05122,0.6509008,-0.6095204,0.9898543,2.756771
22.10128,0.6509008,-0.6095204,0.9896896,2.756771
22.15127,0.5237532,-0.5487319,0.9898543,2.756771
22.20108,0.6509008,-0.5149621,0.9900191,2.756771
22.25103,0.6509008,-0.5149621,0.9896896,2.756771
22.30228,0.5237532,-0.4744415,0.9896896,2.756771
22.35072,0.5237532,-0.5622388,0.9896896,2.756771
22.40123,0.6509008,-0.5757506,0.9896896,2.756771
22.45127,0.6509008,-0.5622388,0.9898543,2.756771
22.50125,0.6509008,-0.5554878,0.9898543,2.756771
22.55128,0.5237532,-0.5014552,0.9898543,2.756771
22.60073,0.5237532,-0.3596254,0.9896896,2.756771
22.65056,0.5237532,-0.2718231,0.9898543,2.76323
22.70051,0.6509008,-0.1975327,0.9898543,2.756771
22.75048,0.5237532,-0.1367492,0.9898543,2.76323
22.80175,0.5237532,-0.09622353,0.989525,2.756771
22.85135,0.6509008,-0.0759607,0.9896896,2.76323
22.90123,0.6509008,-0.1299933,0.9900191,2.76323
22.95125,0.5237532,-0.157007,0.9898543,2.76323
23.0012,0.6509008,-0.1772699,0.9896896,2.76323
23.05198,0.6509008,-0.1705189,0.9898543,2.76323
23.10069,0.5237532,-0.1840258,0.9898543,2.76323
23.1505,0.6509008,-0.2380534,0.9898543,2.76323
23.20133,0.7780523,-0.2515653,0.9898543,2.769689
23.25102,0.6509008,-0.2177956,0.9896896,2.76323
23.30214,0.6509008,-0.2718231,0.9896896,2.769689
23.35073,0.6509008,-0.3190998,0.9896896,2.76323
23.40247,0.6509008,-0.3798882,0.9896896,2.769689
23.45105,0.5237532,-0.3731323,0.9898543,2.76323
23.50087,0.7780523,-0.4339158,0.9898543,2.769689
23.5519,0.6509008,-0.4406717,0.9896896,2.769689
23.60145,0.7780523,-0.4001461,0.9898543,2.769689
23.65135,0.6509008,-0.4204089,0.9898543,2.769689
23.70127,0.6509008,-0.4541787,0.9898543,2.769689
23.75126,0.5237532,-0.3866392,0.9898543,2.769689
23.8022,0.6509008,-0.3596254,0.9898543,2.769689
23.85073,0.6509008,-0.28533,0.9896896,2.769689
23.90214,0.7780523,-0.2380534,0.9898543,2.769689
23.95048,0.5237532,-0.1907768,0.9898543,2.769689
24.00147,0.6509008,-0.1299933,0.9896896,2.776148
24.05234,0.9051962,-0.02193312,0.9898543,2.776148
24.10114,0.9051962,0.05911323,0.9896896,2.769689
24.15232,0.6509008,0.1671783,0.9900191,2.776148
24.20047,0.7780523,0.2887454,0.9900191,2.776148
24.25089,0.7780523,0.3900546,0.9896896,2.769689
24.30171,0.9051962,0.4238243,0.9898543,2.776148
24.35034,0.6509008,0.457594,0.9896896,2.776148
24.40158,0.7780523,0.5251335,0.989525,2.776148
24.45071,0.9051962,0.6399496,0.9898543,2.776148
24.50051,0.7780523,0.6669633,0.9898543,2.776148
24.55202,0.5237532,0.6872262,0.9898543,2.776148
24.60035,0.7780523,0.7547656,0.9898543,2.776148
24.65207,0.7780523,0.7952863,0.9898543,2.776148
24.7006,0.7780523,0.8763326,0.9896896,2.776148
24.75055,0.5237532,0.9033464,0.9896896,2.776148
24.8017,0.7780523,0.9303652,0.9898543,2.776148
24.85151,0.7780523,0.9911487,0.9896896,2.776148
24.90234,0.7780523,0.9776418,0.9898543,2.782607
24.95114,0.6509008,0.9641349,0.9898543,2.776148
25.00114,0.6509008,0.950628,0.9896896,2.782607
25.05234,0.5237532,0.9438721,0.9898543,2.782607
25.10114,0.6509008,0.9101024,0.9896896,2.776148
25.15246,0.6509008,0.8560698,0.9898543,2.782607
25.2007,0.7780523,0.7750235,0.9896896,2.782607
25.25034,0.6509008,0.6872262,0.9898543,2.782607
25.30222,0.7780523,0.5318844,0.9896896,2.782607
25.35096,0.5237532,0.464345,0.9896896,2.782607
25.40146,0.7780523,0.3090082,0.9896896,2.782607
25.45097,0.6509008,0.2684825,0.9898543,2.782607
25.50082,0.6509008,0.1604224,0.9898543,2.782607
25.55209,0.6509008,0.09288295,0.9898543,2.789066
25.60072,0.7780523,0.06586917,0.9896896,2.789066
25.65248,0.7780523,0.0253435,0.9896896,2.789066
25.70083,0.7780523,-0.02193312,0.9898543,2.789066
25.75071,0.5237532,-0.08271664,0.9898543,2.789066
25.80196,0.7780523,-0.1164864,0.9896896,2.789066
25.85119,0.7780523,-0.1164864,0.9898543,2.789066
25.90213,0.7780523,-0.1502561,0.9898543,2.789066
25.95098,0.6509008,-0.1772699,0.9898543,2.789066
26.00098,0.7780523,-0.1907768,0.9896896,2.789066
26.05213,0.7780523,-0.1975327,0.9898543,2.795526
26.10159,0.7780523,-0.2177956,0.9896896,2.789066
26.15158,0.5237532,-0.2583162,0.9898543,2.795526
26.20159,0.6509008,-0.3528695,0.9896896,2.789066
26.25129,0.6509008,-0.406902,0.9896896,2.789066
26.30197,0.6509008,-0.4541787,0.9898543,2.795526
26.3508,0.5237532,-0.4744415,0.9898543,2.795526
26.40259,0.6509008,-0.4947043,0.9896896,2.789066
26.45113,0.5237532,-0.5149621,0.9898543,2.789066
26.50081,0.6509008,-0.535225,0.9896896,2.789066
26.55142,0.5237532,-0.5419809,0.9896896,2.789066
26.60122,0.9051962,-0.528474,0.9896896,2.795526
26.65248,0.7780523,-0.528474,0.9896896,2.795526
26.70098,0.7780523,-0.528474,0.9896896,2.795526
26.75112,0.6509008,-0.528474,0.9898543,2.789066
26.80233,0.7780523,-0.5419809,0.9898543,2.795526
26.85072,0.7780523,-0.5082112,0.9898543,2.789066
26.90179,0.7780523,-0.5014552,0.9898543,2.795526
26.95121,0.6509008,-0.5082112,0.9898543,2.795526
27.00121,0.9051962,-0.535225,0.999737,2.795526
27.05218,0.7780523,-0.5149621,0.999737,2.795526
27.10158,0.7780523,-0.5217181,0.999737,2.795526
27.15145,0.5237532,-0.5892575,0.999737,2.795526
27.20148,0.7780523,-0.656797,0.9999016,2.795526
27.25117,0.7780523,-0.7175805,0.999737,2.795526
27.30213,0.7780523,-0.7378433,0.9999016,2.795526
27.35081,0.6509008,-0.7513502,0.999737,2.795526
27.40183,0.7780523,-0.7581012,0.999737,2.795526
27.45067,0.9051962,-0.7648572,0.999737,2.801985
27.50071,0.7780523,-0.7783641,0.999737,2.801985
27.55183,0.5237532,-0.7648572,0.999737,2.801985
27.60146,0.7780523,-0.7310874,0.9995722,2.795526
27.65258,0.7780523,-0.7378433,0.999737,2.801985
27.70132,0.7780523,-0.7243315,0.9999016,2.801985
27.75125,0.6509008,-0.7175805,0.999737,2.801985
27.80245,0.7780523,-0.7175805,0.9999016,2.808444
27.85145,0.9051962,-0.6838108,0.9999016,2.808444
27.90207,0.7780523,-0.656797,0.999737,2.808444
27.9507,0.5237532,-0.6432852,0.999737,2.808444
28.00057,0.7780523,-0.6095204,0.9898543,2.808444
28.05166,0.7780523,-0.5892575,0.9898543,2.808444
28.10143,0.6509008,-0.6230273,0.9896896,2.808444
28.15149,0.6509008,-0.6703039,0.9896896,2.814903
28.20149,0.6509008,-0.7445943,0.9898543,2.808444
28.25066,0.5237532,-0.7445943,0.9898543,2.814903
28.30216,0.6509008,-0.7243315,0.9898543,2.808444
28.35075,0.6509008,-0.663548,0.9896896,2.814903
28.40209,0.6509008,-0.5892575,0.9896896,2.814903
28.45167,0.6509008,-0.4811924,0.9898543,2.814903
28.50107,0.6509008,-0.3596254,0.9896896,2.821362
28.55225,0.6509008,-0.2718231,0.9898543,2.814903
28.6007,0.5237532,-0.1164864,0.9898543,2.821362
28.65181,0.6509008,-0.01517718,0.9898543,2.821362
28.7015,0.6509008,0.1199017,0.9896896,2.821362
28.75107,0.6509008,0.2549756,0.9896896,2.821362
28.80184,0.6509008,0.3900546,0.9898543,2.821362
28.85074,0.5237532,0.5386404,0.9898543,2.821362
28.90273,0.5237532,0.6264377,0.9898543,2.821362
28.95132,0.5237532,0.6602074,0.9898543,2.821362
29.00132,0.5237532,0.7480097,0.9999016,2.821362
29.05192,0.6509008,0.8425629,0.999737,2.827821
29.10131,0.6509008,0.8695817,0.9995722,2.821362
29.15232,0.5237532,0.8898395,0.9999016,2.821362
29.20095,0.6509008,0.8965955,0.999737,2.827821
29.25093,0.6509008,0.9843928,0.999737,2.827821
29.30171,0.6509008,0.9911487,0.9999016,2.827821
29.35146,0.6509008,0.9911487,0.999737,2.827821
29.40219,0.5237532,0.9843928,0.999737,2.827821
29.45091,0.5237532,1.058688,0.999737,2.827821
29.50053,0.5237532,1.051932,0.999737,2.827821
29.55269,0.5237532,1.024918,0.9999016,2.827821
29.60119,0.6509008,0.9776418,0.999737,2.827821
29.65219,0.6509008,0.9303652,0.999737,2.827821
29.70082,0.6509008,0.9033464,0.999737,2.827821
29.7512,0.5237532,0.8493189,0.999737,2.827821
29.80249,0.5237532,0.7885303,0.999737,2.827821
29.85121,0.6509008,0.8020422,0.999737,2.827821
29.90204,0.5237532,0.7277468,0.9999016,2.827821
29.95144,0.6509008,0.6467005,0.999737,2.821362
30.00148,0.6509008,0.5453913,0.9898543,2.821362
30.05174,0.6509008,0.4778568,0.9898543,2.827821
30.10056,0.5237532,0.3157642,0.9898543,2.821362
30.15248,0.6509008,0.2212059,0.9898543,2.827821
30.20092,0.6509008,0.1401596,0.9896896,2.827821
30.25095,0.5237532,0.09288295,0.9898543,2.827821
30.30235,0.6509008,0.0253435,0.9898543,2.827821
30.35099,0.6509008,0.01183661,0.9898543,2.827821
30.40169,0.6509008,0.005085652,0.9896896,2.821362
30.45173,0.6509008,0.01859255,0.9896896,2.827821
30.50171,0.5237532,-0.001670288,0.9896896,2.821362
30.55169,0.6509008,-0.02193312,0.9898543,2.827821
30.6012,0.6509008,-0.02868408,0.9898543,2.827821
30.65249,0.5237532,-0.02868408,0.999737,2.827821
30.70115,0.6509008,-0.01517718,0.999737,2.821362
30.75097,0.5237532,-0.04894691,0.999737,2.821362
30.80231,0.5237532,-0.0624538,0.9995722,2.821362
30.85081,0.6509008,-0.03544002,0.9999016,2.821362
30.90266,0.6509008,-0.1029795,0.9999016,2.821362
30.95079,0.5237532,-0.2042837,0.9999016,2.821362
31.00068,0.5237532,-0.2718231,0.999737,2.821362
31.05194,0.6509008,-0.2785791,0.9999016,2.821362
31.10064,0.5237532,-0.2920859,0.999737,2.821362
31.15261,0.5237532,-0.3123488,0.999737,2.821362
31.20132,0.6509008,-0.3190998,0.999737,2.821362
31.25133,0.5237532,-0.2988419,0.999737,2.821362
31.30243,0.6509008,-0.3055928,0.9999016,2.821362
31.35068,0.5237532,-0.3055928,0.999737,2.821362
31.40168,0.5237532,-0.3190998,0.999737,2.821362
31.45143,0.6509008,-0.2988419,0.999737,2.814903
31.50102,0.5237532,-0.3055928,0.999737,2.821362
31.5526,0.5237532,-0.3055928,0.999737,2.821362
31.60169,0.6509008,-0.2920859,0.999737,2.821362
31.6518,0.6509008,-0.2920859,0.9898543,2.821362
31.70144,0.6509008,-0.3190998,0.9898543,2.821362
31.7513,0.5237532,-0.2988419,0.9896896,2.821362
31.80243,0.5237532,-0.3596254,0.9896896,2.821362
31.85155,0.6509008,-0.3933951,0.9898543,2.821362
31.90267,0.5237532,-0.4541787,0.9900191,2.821362
31.9518,0.6509008,-0.5014552,0.9898543,2.821362
32.00159,0.5237532,-0.5082112,0.9896896,2.821362
32.05285,0.6509008,-0.5082112,0.9898543,2.827821
32.10159,0.5237532,-0.5149621,0.9898543,2.827821
32.15272,0.6509008,-0.5217181,0.9898543,2.827821
32.20103,0.6509008,-0.5149621,0.9898543,2.834281
32.25117,0.5237532,-0.4811924,0.9898543,2.827821
32.30232,0.6509008,-0.4676856,0.9898543,2.834281
32.35072,0.6509008,-0.4676856,0.9898543,2.834281
32.40181,0.5237532,-0.4676856,0.9898543,2.84074
32.45182,0.6509008,-0.4474277,0.9898543,2.84074
32.50184,0.6509008,-0.4204089,0.9896896,2.84074
32.55246,0.6509008,-0.4001461,0.9896896,2.84074
32.6008,0.6509008,-0.3663764,0.9898543,2.84074
32.65167,0.7780523,-0.3326116,0.9898543,2.84074
32.70177,0.6509008,-0.3326116,0.9898543,2.847199
32.75146,0.6509008,-0.3596254,0.9896896,2.84074
32.80259,0.6509008,-0.3798882,0.9896896,2.847199
32.8511,0.6509008,-0.3258557,0.9896896,2.847199
32.90228,0.6509008,-0.2650722,0.9898543,2.847199
32.9516,0.7780523,-0.1705189,0.9898543,2.847199
33.00146,0.7780523,-0.05570285,0.9896896,2.853658
33.05283,0.5237532,0.05911323,0.9896896,2.853658
33.10159,0.7780523,0.1806852,0.9898543,2.853658
33.15272,0.5237532,0.3225151,0.9898543,2.853658
33.20117,0.5237532,0.4238243,0.9896896,2.853658
33.25115,0.7780523,0.5521473,0.9898543,2.853658
33.30244,0.7780523,0.6264377,0.9898543,2.860117
33.35102,0.6509008,0.6872262,0.9898543,2.853658
33.40204,0.7780523,0.7615166,0.9896896,2.860117
33.45179,0.7780523,0.8560698,0.9898543,2.860117
33.50179,0.7780523,0.9033464,0.9898543,2.860117
33.55269,0.5237532,0.950628,0.9896896,2.853658
33.6013,0.7780523,1.004656,0.9896896,2.860117
33.65254,0.7780523,1.045181,0.9898543,2.860117
33.70104,0.7780523,1.038425,0.9898543,2.860117
33.75088,0.5237532,0.9708859,0.9896896,2.860117
33.80196,0.7780523,0.9776418,0.9896896,2.860117
33.85196,0.7780523,1.011412,0.9898543,2.860117
33.90195,0.7780523,1.018162,0.9896896,2.860117
33.95108,0.6509008,1.004656,0.9896896,2.860117
34.00096,0.7780523,0.9708859,0.9898543,2.860117
34.05244,0.7780523,0.9708859,0.9896896,2.860117
34.10122,0.7780523,0.9303652,0.9898543,2.860117
34.15278,0.6509008,0.8628258,0.9896896,2.860117
34.20144,0.7780523,0.7750235,0.9898543,2.860117
34.25171,0.7780523,0.7615166,0.9896896,2.860117
34.30283,0.7780523,0.7547656,0.9900191,2.860117
34.35102,0.5237532,0.6669633,0.9898543,2.860117
34.40253,0.7780523,0.5994239,0.9898543,2.860117
34.45121,0.7780523,0.6061798,0.9896896,2.860117
34.50122,0.7780523,0.5521473,0.9898543,2.860117
34.55239,0.6509008,0.4913637,0.9898543,2.860117
34.60109,0.7780523,0.3968105,0.9898543,2.860117
34.65245,0.7780523,0.2752385,0.9896896,2.860117
34.70106,0.7780523,0.2009481,0.9896896,2.860117
34.75193,0.5237532,0.1266527,0.9896896,2.860117
34.80183,0.7780523,0.07262511,0.9898543,2.860117
34.85125,0.7780523,0.04560633,0.9898543,2.860117
34.90244,0.7780523,0.0253435,0.9898543,2.860117
34.95108,0.6509008,-0.001670288,0.9898543,2.860117
35.00195,0.6509008,-0.001670288,0.9896896,2.860117
35.05193,0.7780523,0.01183661,0.9898543,2.860117
35.10188,0.7780523,0.01183661,0.9898543,2.860117
35.15193,0.6509008,-0.001670288,0.9898543,2.860117
35.20183,0.7780523,-0.001670288,0.9898543,2.853658
35.2517,0.7780523,0.03209944,0.9898543,2.853658
35.30295,0.7780523,0.0253435,0.9999016,2.860117
35.3517,0.9051962,0.005085652,0.999737,2.853658
35.40261,0.7780523,-0.008426228,0.999737,2.860117
35.45103,0.7780523,0.0253435,0.999737,2.853658
35.50203,0.7780523,0.01183661,0.9999016,2.853658
35.55202,0.6509008,-0.03544002,0.9999016,2.853658
35.60104,0.7780523,-0.0759607,0.999737,2.853658
35.65278,0.7780523,-0.1907768,0.999737,2.853658
35.70115,0.7780523,-0.2380534,0.999737,2.853658
35.75103,0.5237532,-0.2583162,0.999737,2.853658
35.80252,0.7780523,-0.2785791,0.999737,2.853658
35.85121,0.7780523,-0.2650722,0.999737,2.853658
35.90255,0.7780523,-0.2448093,0.999737,2.853658
35.95107,0.5237532,-0.2583162,0.9999016,2.853658
36.00182,0.7780523,-0.2515653,0.999737,2.853658
36.05182,0.6509008,-0.2380534,0.9999016,2.853658
36.10091,0.7780523,-0.2448093,0.999737,2.847199
36.15194,0.6509008,-0.2515653,0.999737,2.853658
36.2015,0.7780523,-0.2650722,0.999737,2.853658
36.25119,0.7780523,-0.2448093,0.999737,2.847199
36.30229,0.7780523,-0.2448093,0.9898543,2.847199
36.35202,0.5237532,-0.2380534,0.9896896,2.847199
36.4023,0.9051962,-0.2448093,0.9896896,2.847199
36.45203,0.6509008,-0.2313024,0.9896896,2.847199
36.50203,0.9051962,-0.2313024,0.9898543,2.847199
36.55307,0.6509008,-0.2583162,0.9898543,2.847199
36.60116,0.5237532,-0.3258557,0.9896896,2.847199
36.65191,0.6509008,-0.4271649,0.9898543,2.84074
36.70137,0.7780523,-0.4541787,0.9898543,2.84074
36.75129,0.6509008,-0.4676856,0.9896896,2.847199
36.80192,0.6509008,-0.4541787,0.9898543,2.847199
36.85119,0.6509008,-0.4474277,0.9898543,2.84074
36.90239,0.9051962,-0.4406717,0.9898543,2.84074
36.95102,0.6509008,-0.406902,0.9898543,2.84074
37.00155,0.7780523,-0.3528695,0.9898543,2.84074
37.05302,0.6509008,-0.3055928,0.9898543,2.834281
37.10177,0.6509008,-0.2448093,0.9896896,2.834281
37.15302,0.5237532,-0.1705189,0.9898543,2.834281
37.20134,0.6509008,-0.09622353,0.9896896,2.834281
37.25103,0.6509008,0.05236227,0.9898543,2.834281
37.30214,0.6509008,0.1469155,0.999737,2.834281
37.35092,0.5237532,0.2549756,0.9999016,2.827821
37.40294,0.9051962,0.3697917,0.9999016,2.834281
37.4514,0.9051962,0.5183775,0.9999016,2.834281
37.5019,0.9051962,0.6061798,0.999737,2.827821
37.55289,0.6509008,0.6669633,0.999737,2.827821
37.60114,0.6509008,0.7007331,0.9995722,2.827821
37.65241,0.6509008,0.71424,0.999737,2.827821
37.70177,0.9051962,0.7750235,0.999737,2.827821
37.75164,0.6509008,0.8155491,0.999737,2.821362
37.80269,0.9051962,0.8425629,0.999737,2.827821
37.85127,0.6509008,0.9236093,0.999737,2.827821
37.90214,0.9051962,0.957379,0.9999016,2.827821
37.95091,0.5237532,0.9776418,0.999737,2.821362
38.00212,0.9051962,0.9979047,0.999737,2.821362
38.05219,0.7780523,1.058688,0.9999016,2.821362
38.10094,0.9051962,1.065439,0.999737,2.821362
38.15218,0.6509008,1.072195,0.9999016,2.821362
38.20199,0.7780523,1.051932,0.9999016,2.821362
38.25141,0.7780523,1.099209,0.9995722,2.814903
38.30244,0.7780523,1.112721,0.999737,2.821362
38.35118,0.5237532,1.051932,0.999737,2.814903
38.40245,0.7780523,1.031674,0.999737,2.814903
38.45102,0.6509008,0.9911487,0.999737,2.814903
38.50164,0.6509008,0.9033464,0.999737,2.814903
38.55241,0.6509008,0.7817794,0.999737,2.814903
38.60202,0.6509008,0.6804702,0.999737,2.808444
38.6524,0.9051962,0.5926729,0.999737,2.808444
38.70189,0.5237532,0.5183775,0.9999016,2.808444
38.75188,0.6509008,0.457594,0.9999016,2.814903
38.80301,0.6509008,0.3832986,0.999737,2.808444
38.85141,0.7780523,0.3697917,0.9999016,2.808444
38.90226,0.6509008,0.3427779,0.999737,2.808444
38.95213,0.6509008,0.3090082,0.9999016,2.808444
39.00214,0.6509008,0.2549756,0.999737,2.808444
39.05201,0.6509008,0.2617316,0.999737,2.808444
39.10201,111.7788,0.2347178,0.9999016,2.808444
39.15263,107.9643,0.207699,0.999737,2.808444
39.20134,105.6757,0.1671783,0.999737,2.808444
39.25176,105.2942,0.1739293,0.999737,2.801985
39.30289,104.5313,0.1941921,0.9898543,2.801985
39.35162,103.0055,0.1266527,0.9896896,2.801985
39.40276,101.8612,0.1063899,0.9898543,2.801985
39.45101,99.95398,0.09963889,0.9896896,2.801985
39.50214,98.9368,0.01859255,0.9898543,2.801985
39.55226,96.26666,-0.08271664,0.9898543,2.801985
39.60213,122.9679,-0.1232373,0.9896896,2.801985
39.65239,153.865,-0.157007,0.9896896,2.795526
39.70201,149.0334,-0.1772699,0.9898543,2.795526
39.75192,142.1673,-0.2313024,0.9896896,2.795526
39.80205,135.047,-0.2313024,0.9896896,2.795526
39.85188,123.9851,-0.1975327,0.9896896,2.795526
39.90276,123.7308,-0.157007,0.9898543,2.795526
39.95142,127.5452,-0.1705189,0.9896896,2.789066
40.00143,120.2978,-0.1907768,0.9898543,2.795526
40.05306,116.9919,-0.2110396,0.9896896,2.795526
40.10178,111.7788,-0.1975327,0.9896896,2.789066
40.15305,108.9815,-0.1907768,0.9898543,2.789066
40.20188,106.4386,-0.1840258,0.9898543,2.795526
40.25114,106.0571,-0.1232373,0.9898543,2.789066
40.30242,104.9128,-0.08947258,0.9900191,2.789066
40.35204,104.4042,-0.1097304,0.9898543,2.789066
40.40313,102.1155,-0.1299933,0.9896896,2.789066
40.45109,100.0811,-0.1772699,0.9898543,2.789066
40.50117,97.41101,-0.2785791,0.9898543,2.782607
40.55238,107.0743,-0.3258557,0.9898543,2.789066
40.60213,154.1193,-0.3326116,0.9896896,2.789066
40.65271,148.3976,-0.3393626,0.9898543,2.789066
40.70214,144.0746,-0.3123488,0.9896896,2.782607
40.75176,138.48,-0.3055928,0.9898543,2.789066
40.80278,124.1122,-0.3055928,0.9896896,2.789066
40.85133,123.2222,-0.2583162,0.9896896,2.782607
40.90224,128.0538,-0.2583162,0.9898543,2.782607
40.95216,122.0779,-0.28533,0.9898543,2.782607
41.00216,115.5933,-0.3123488,0.9896896,2.782607
41.05312,112.2874,-0.3393626,0.9896896,2.782607
41.10173,106.82,-0.4609346,0.9898543,2.782607
41.15252,106.6929,-0.6162713,0.9898543,2.782607
41.20125,106.4386,-0.6838108,0.989525,2.782607
41.25198,105.6757,-0.656797,0.9898543,2.782607
41.30322,103.2598,-0.5757506,0.9898543,2.782607
41.35204,102.3698,-0.7108246,0.9896896,2.782607
41.40216,100.0811,-0.7040736,0.9896896,2.782607
41.45172,98.1739,-1.014752,0.9896896,2.782607
41.50212,97.79247,-1.541551,0.9898543,2.776148
41.55317,103.2598,-1.852229,0.9896896,2.776148
41.602,154.6279,-2.297987,0.9896896,2.782607
41.65271,151.5763,-2.723479,0.9896896,2.776148
41.70116,140.1329,-2.932848,0.9896896,2.782607
41.75224,135.047,-2.946357,0.9896896,2.776148
41.80224,123.7308,-2.986881,0.9898543,2.776148
41.85126,125.638,-2.892325,0.9896896,2.776148
41.90303,128.8167,-2.750495,0.9900191,2.776148
41.95174,129.1982,-2.642435,0.9896896,2.769689
42.00203,115.8476,-2.5006,0.9896896,2.776148
42.05324,110.7616,-2.291231,0.9898543,2.776148
42.10197,108.0915,-2.034585,0.9896896,2.769689
42.15324,106.4386,-1.798197,0.9898543,2.776148
42.20203,104.9128,-1.656367,0.9896896,2.769689
42.25203,105.0399,-1.494274,0.9898543,2.769689
42.30303,101.8612,-1.251135,0.9898543,2.769689
42.35149,101.0983,-1.143075,0.9898543,2.769689
42.40211,98.55534,-1.062029,0.9896896,2.769689
42.45187,96.64812,-0.9269499,0.9896896,2.776148
42.50211,97.02956,-0.8188897,0.9896896,2.769689
42.55312,118.2634,-0.7040736,0.9898543,2.769689
42.60187,153.1021,-0.6432852,0.9898543,2.76323
42.65311,141.5316,-0.6027644,0.9898543,2.769689
42.70165,133.9027,-0.5082112,0.9896896,2.769689
42.75237,121.0607,-0.406902,0.9896896,2.769689
42.80236,121.4421,-0.3528695,0.9896896,2.769689
42.85236,124.1122,-0.2920859,0.9896896,2.769689
42.90304,128.3081,-0.2177956,0.9898543,2.769689
42.95172,116.6105,-0.2177956,0.9896896,2.769689
43.00172,111.5245,-0.1907768,0.9896896,2.769689
43.05316,107.9643,-0.1502561,0.9898543,2.769689
43.10167,106.82,-0.1367492,0.9898543,2.769689
43.15303,104.9128,-0.1164864,0.9898543,2.769689
43.20168,104.6585,-0.1097304,0.9896896,2.769689
43.25167,103.5141,-0.08947258,0.9898543,2.769689
43.303,101.8612,-0.1029795,0.9898543,2.76323
43.35148,99.19109,-0.2583162,0.9896896,2.769689
43.40218,97.79247,-0.4001461,0.9896896,2.769689
43.45211,100.4626,-0.4676856,0.9896896,2.776148
43.50185,119.7892,-0.528474,0.9896896,2.769689
43.55299,151.7035,-0.5419809,0.9898543,2.769689
43.60162,141.023,-0.5825016,0.9898543,2.769689
43.65284,132.3769,-0.6230273,0.9896896,2.769689
43.70216,121.8235,-0.5960085,0.9898543,2.769689
43.75198,118.2634,-0.6027644,0.9898543,2.769689
43.80315,124.6208,-0.5892575,0.9898543,2.769689
43.85201,126.6552,-0.5757506,0.9896896,2.776148
43.90322,115.4661,-0.5419809,0.9898543,2.776148
43.95238,110.1259,-0.5217181,0.9898543,2.776148
44.00183,106.1843,-0.4406717,0.9898543,2.776148
44.05274,104.6585,-0.3190998,0.9898543,2.776148
44.10177,103.8956,-0.1907768,0.9896896,2.776148
44.15236,102.7513,-0.1907768,0.9896896,2.776148
44.202,101.9884,-0.2245465,0.9896896,2.776148
44.25165,101.2255,-0.2380534,0.9898543,2.782607
44.30243,98.30104,-0.3596254,0.9898543,2.776148
44.3516,95.88522,-0.5217181,0.9900191,2.782607
44.40274,103.6413,-0.7716131,0.9898543,2.782607
44.45123,134.2841,-0.906687,0.9898543,2.782607
44.50165,154.3736,-1.055273,0.9896896,2.789066
44.55257,141.2773,-1.257891,0.9898543,2.782607
44.60236,137.0814,-1.359195,0.9896896,2.782607
44.65311,123.7308,-1.365951,0.9896896,2.789066
44.70138,121.4421,-1.365951,0.9898543,2.789066
44.75235,123.6036,-1.318675,0.9896896,2.789066
44.80323,127.9267,-1.298412,0.9898543,2.795526
44.8516,118.2634,-1.338938,0.9898543,2.789066
44.90231,113.686,-1.372707,0.9900191,2.789066
44.95184,107.8372,-1.379458,0.9896896,2.795526
45.00236,105.93,-1.352444,0.9896896,2.795526
45.0526,104.7856,-1.305168,0.9896896,2.795526
45.10235,103.0055,-1.352444,0.9898543,2.801985
45.15298,102.7513,-1.345688,0.9896896,2.801985
45.2016,101.2255,-1.244384,0.9898543,2.801985
45.2516,98.9368,-1.305168,0.9896896,2.801985
45.30257,97.53816,-1.359195,0.9900191,2.801985
45.35235,96.13953,-1.453754,0.9896896,2.808444
45.40337,121.4421,-1.46726,0.9896896,2.821362
45.45211,151.1949,-1.460505,0.9896896,2.834281
45.5018,148.3976,-1.460505,0.9896896,2.84074
45.55314,139.4972,-1.514537,0.9898543,2.860117
45.60136,123.7308,-1.494274,0.9898543,2.879495
45.65265,120.9335,-1.521288,0.9898543,2.879495
45.70206,121.0607,-1.5348,0.9900191,2.873036
45.75252,123.2222,-1.629353,0.9898543,2.873036
45.80239,115.8476,-1.629353,0.9898543,2.853658
45.85212,111.7788,-1.56857,0.9898543,2.834281
45.90331,106.82,-1.521288,0.9900191,2.821362
45.95164,104.1499,-1.446998,0.9898543,2.782607
46.00164,103.8956,-1.399721,0.9798071,2.743852
46.05312,102.7513,-1.372707,0.9798071,2.750311
46.10194,102.3698,-1.311919,0.9799718,2.782607
46.1526,101.9884,-1.237628,0.9798071,2.814903
46.20213,98.55534,-1.311919,0.9796425,2.808444
46.25211,96.64812,-1.338938,0.9798071,2.801985
46.30335,98.80965,-1.379458,0.9798071,2.808444
46.35188,145.346,-1.352444,0.9798071,2.814903
46.4029,152.8478,-1.332182,0.9798071,2.821362
46.45161,137.3357,-1.453754,0.9798071,2.827821
46.50163,136.1913,-1.521288,0.9798071,2.834281
46.55334,128.181,-1.507781,0.9796425,2.834281
46.60186,118.2634,-1.46726,0.9796425,2.834281
46.65344,118.6448,-1.426735,0.9798071,2.84074
46.7021,123.3493,-1.406477,0.9798071,2.84074
46.75159,113.5589,-1.406477,0.9798071,2.84074
46.8029,109.7444,-1.372707,0.9798071,2.847199
46.85151,105.1671,-1.338938,0.9796425,2.847199
46.90263,103.387,-1.338938,0.9798071,2.847199
46.95187,102.8784,-1.210615,0.9798071,2.847199
47.00196,102.3698,-0.9742265,0.9796425,2.84074
47.05283,101.2255,-0.8864292,0.9798071,2.834281
47.10159,98.55534,-0.7986269,0.9798071,2.827821
47.15306,97.79247,-0.6703039,0.9799718,2.827821
47.20185,112.2874,-0.5149621,0.9798071,2.827821
47.25198,151.7035,-0.3528695,0.9798071,2.827821
47.30284,141.7859,-0.2177956,0.9798071,2.827821
47.35234,132.8855,-0.1299933,0.9798071,2.827821
47.40323,121.0607,-0.001670288,0.9799718,2.834281
47.45247,117.5005,0.07937606,0.9798071,2.827821
47.50236,117.3734,0.2617316,0.9798071,2.827821
47.55306,122.205,0.3427779,0.9799718,2.827821
47.60235,117.3734,0.4238243,0.9798071,2.827821
47.65311,110.3802,0.4981147,0.9798071,2.821362
47.70158,105.93,0.5926729,0.9799718,2.821362
47.75169,104.277,0.5589032,0.9799718,2.821362
47.80299,100.9712,0.579161,0.9799718,2.821362
47.85163,101.9884,0.5926729,0.9798071,2.814903
47.9031,102.7513,0.5318844,0.9799718,2.814903
47.95198,100.4626,0.4035614,0.9798071,2.821362
48.00158,97.9196,0.2414688,0.9798071,2.827821
48.05302,113.1774,0.1334086,0.9796425,2.827821
48.10158,140.6415,0.01859255,0.9796425,2.821362
48.15343,135.1741,-0.1164864,0.9798071,2.821362
48.20175,125.3837,-0.3190998,0.9798071,2.827821
48.25186,117.8819,-0.4879484,0.9798071,2.821362
48.30302,112.6688,-0.6365342,0.9798071,2.827821
48.35145,115.5933,-0.791871,0.9796425,2.827821
48.40274,121.1878,-0.9201939,0.9798071,2.827821
48.45237,112.4145,-1.048522,0.9796425,2.821362
48.50237,110.7616,-1.170089,0.9798071,2.821362
48.55281,103.8956,-1.224121,0.9798071,2.827821
48.60236,101.6069,-1.224121,0.9798071,2.821362
48.65322,100.4626,-1.244384,0.9798071,2.821362
48.70162,99.82683,-1.257891,0.9796425,2.821362
48.75258,99.69969,-1.203859,0.9798071,2.821362
48.80358,99.06393,-1.298412,0.9798071,2.821362
48.8521,97.15671,-1.345688,0.9798071,2.821362
48.90337,95.88522,-1.440242,0.9798071,2.821362
48.95192,115.4661,-1.453754,0.9798071,2.821362
49.00205,153.6107,-1.440242,0.9796425,2.821362
49.05195,142.9302,-1.446998,0.9798071,2.814903
49.10307,134.6656,-1.487523,0.9796425,2.814903
49.15253,122.3321,-1.480767,0.9798071,2.821362
49.20263,116.9919,-1.46726,0.9796425,2.814903
49.25149,117.8819,-1.406477,0.9796425,2.814903
49.30149,124.4937,-1.392965,0.9796425,2.821362
49.35249,114.7032,-1.386214,0.9796425,2.814903
49.4021,109.363,-1.379458,0.9796425,2.814903
49.45163,105.4214,-1.359195,0.9798071,2.814903
49.50208,103.8956,-1.305168,0.9798071,2.814903
49.55213,100.844,-1.278149,0.9798071,2.814903
49.60363,99.69969,-1.278149,0.9798071,2.814903
49.65228,99.69969,-1.230872,0.9796425,2.808444
49.7019,99.31824,-1.264642,0.9798071,2.814903
49.75166,97.41101,-1.338938,0.9798071,2.808444
49.8018,95.12233,-1.446998,0.9798071,2.808444
49.85257,114.8304,-1.487523,0.9796425,2.814903
49.90261,151.1949,-1.480767,0.9799718,2.808444
49.95199,146.1089,-1.480767,0.9798071,2.808444
50.00261,134.0298,-1.494274,0.9798071,2.808444
50.05261,124.6208,-1.494274,0.9798071,2.808444
50.10262,116.6105,-1.419984,0.9798071,2.808444
50.1526,116.8647,-1.284905,0.9798071,2.808444
50.20226,120.5521,-1.109305,0.9798071,2.808444
50.25212,115.4661,-0.8931801,0.9798071,2.808444
50.30214,110.3802,-0.656797,0.9798071,2.808444
50.35316,104.6585,-0.4406717,0.9798071,2.808444
50.40249,102.7513,-0.2785791,0.9798071,2.801985
50.4525,101.3526,-0.09622353,0.9798071,2.801985
50.50233,100.3354,0.1266527,0.9798071,2.801985
50.55248,99.19109,0.2684825,0.9798071,2.801985
50.60302,98.1739,0.3832986,0.9798071,2.801985
50.6524,96.90242,0.4508381,0.9798071,2.801985
50.70232,95.50377,0.579161,0.9798071,2.795526
50.75249,101.9884,0.6331936,0.9798071,2.795526
50.8022,141.4044,0.7007331,0.9796425,2.795526
50.85332,148.0162,0.8020422,0.9796425,2.801985
50.90213,135.8099,0.8965955,0.9798071,2.801985
50.95199,127.4181,0.8965955,0.9798071,2.801985
51.00274,115.9747,0.9371161,0.9796425,2.795526
51.05261,114.0675,0.9911487,0.9798071,2.795526
51.10262,116.6105,1.092458,0.9798071,2.795526
51.15248,122.205,1.065439,0.9799718,2.795526
51.20178,111.6517,1.031674,0.9798071,2.795526
51.25267,104.277,1.058688,0.9798071,2.801985
51.30228,102.6241,1.159997,0.9799718,2.795526
51.35344,101.6069,1.058688,0.9798071,2.795526
51.40165,99.57254,0.9708859,0.9796425,2.795526
51.45261,99.19109,0.9438721,0.9796425,2.795526
51.50261,99.19109,0.9303652,0.9798071,2.789066
51.5523,96.90242,0.7547656,0.9798071,2.789066
51.60286,96.90242,0.6399496,0.9798071,2.789066
51.65261,128.4353,0.5318844,0.9798071,2.789066
51.7026,150.1777,0.5048707,0.9799718,2.789066
51.75229,145.4732,0.3022523,0.9798071,2.789066
51.80228,131.1054,0.1469155,0.9798071,2.789066
51.85335,118.2634,0.04560633,0.9798071,2.789066
51.90161,112.1602,-0.03544002,0.9798071,2.789066
51.95221,113.9403,-0.1097304,0.9798071,2.789066
52.00286,116.7376,-0.2110396,0.9796425,2.789066
52.05169,119.0263,-0.2988419,0.9798071,2.782607
52.10269,109.2358,-0.3731323,0.9798071,2.782607
52.15244,103.5141,-0.4947043,0.9798071,2.782607
52.20206,101.2255,-0.6027644,0.9798071,2.782607
52.25168,100.0811,-0.6973177,0.9798071,2.782607
52.30193,98.80965,-0.7716131,0.9798071,2.782607
52.35306,98.42819,-0.8256407,0.9798071,2.782607
52.40254,97.66531,-1.014752,0.9798071,2.782607
52.45256,96.26666,-1.03501,0.9798071,2.782607
52.50222,95.50377,-1.014752,0.9799718,2.782607
52.55219,98.42819,-0.9472127,0.9798071,2.776148
52.60291,151.0677,-0.8188897,0.9798071,2.782607
52.65194,139.8786,-0.7040736,0.9798071,2.782607
52.70277,132.7583,-0.5960085,0.9798071,2.782607
52.7528,120.9335,-0.5419809,0.9798071,2.776148
52.80228,117.8819,-0.5554878,0.9798071,2.782607
52.85357,118.5177,-0.656797,0.9796425,2.776148
52.90217,123.3493,-0.6770549,0.9799718,2.776148
52.9521,114.1946,-0.7378433,0.9799718,2.776148
53.0021,109.6173,-0.7648572,0.9798071,2.782607
53.0521,105.2942,-0.7581012,0.9798071,2.776148
53.10333,103.7684,-0.7581012,0.9798071,2.776148
53.15209,103.387,-0.7986269,0.9798071,2.782607
53.20202,102.2427,-0.8053828,0.9798071,2.776148
53.25185,101.9884,-0.8256407,0.9798071,2.782607
53.30281,99.95398,-0.913443,0.9799718,2.782607
53.35284,98.30104,-1.048522,0.9798071,2.782607
53.40278,105.6757,-1.082287,0.9798071,2.782607
53.45257,135.4285,-1.082287,0.9798071,2.789066
53.50258,143.3117,-1.06878,0.9798071,2.789066
53.55257,147.6347,-1.109305,0.9798071,2.795526
53.60379,129.5796,-1.075536,0.9798071,2.795526
53.6521,119.0263,-1.095798,0.9798071,2.801985
53.70209,119.2806,-1.082287,0.9798071,2.808444
53.75209,122.9679,-1.095798,0.9798071,2.808444
53.80209,125.638,-1.122812,0.9796425,2.808444
53.85309,113.9403,-1.122812,0.9796425,2.814903
53.90184,108.6001,-1.102549,0.9798071,2.821362
53.95167,106.9472,-1.048522,0.9799718,2.827821
54.00236,104.7856,-0.9877334,0.9798071,2.834281
54.05287,103.1327,-0.9539636,0.9798071,2.834281
54.10355,102.3698,-0.8526595,0.9798071,2.84074
54.15231,101.8612,-0.8391476,0.9798071,2.847199
54.2028,101.3526,-0.8053828,0.9798071,2.853658
54.2521,99.69969,-0.7783641,0.9798071,2.853658
54.30187,114.9575,-0.663548,0.9798071,2.860117
54.35305,152.3392,-0.5487319,0.9798071,2.866576
54.40179,145.346,-0.4811924,0.9796425,2.873036
54.45241,137.8443,-0.3461185,0.9798071,2.879495
54.50232,122.8407,-0.2448093,0.9801366,2.885954
54.55237,120.2978,-0.1907768,0.9798071,2.892413
54.60355,120.9335,-0.04894691,0.9798071,2.898872
54.65205,125.7652,0.03209944,0.9798071,2.898872
54.70202,126.528,0.1739293,0.9798071,2.905332
54.75184,113.0503,0.2347178,0.9798071,2.911791
54.80283,107.9643,0.3022523,0.9798071,2.91825
54.85353,106.0571,0.3900546,0.9798071,2.91825
54.90229,104.5313,0.5724101,0.9798071,2.924709
54.95204,103.7684,0.6331936,0.9799718,2.924709
55.00204,103.387,0.6534564,0.9796425,2.931168
55.05209,102.3698,0.7007331,0.9796425,2.931168
55.10317,99.57254,0.7412537,0.9798071,2.937627
55.15179,102.497,0.7209959,0.9798071,2.944087
55.20184,145.9818,0.6872262,0.9796425,2.944087
55.25253,151.9578,0.7007331,0.9796425,2.950546
55.30237,140.2601,0.7209959,0.9798071,2.950546
55.35334,129.7068,0.6196867,0.9798071,2.957005
55.40208,119.0263,0.5589032,0.9796425,2.963464
55.45184,120.6792,0.5116266,0.9796425,2.963464
55.50217,122.205,0.4778568,0.9799718,2.963464
55.55267,127.4181,0.336022,0.9798071,2.969923
55.60283,117.5005,0.2482247,0.9796425,2.969923
55.65214,110.3802,0.1671783,0.9798071,2.969923
55.70292,106.6929,0.1266527,0.9798071,2.976382
55.75267,104.6585,0.0253435,0.9798071,2.976382
55.80283,104.0227,-0.0624538,0.9796425,2.976382
55.85316,103.7684,-0.1772699,0.9798071,2.982841
55.90266,102.8784,-0.3123488,0.9799718,2.982841
55.95243,100.3354,-0.5149621,0.9798071,2.982841
56.00217,102.7513,-0.7175805,0.9799718,2.9893
56.05243,144.9646,-0.8188897,0.9798071,2.982841
56.10329,150.9406,-0.9337058,0.9796425,2.9893
56.15291,145.346,-1.102549,0.9798071,2.9893
56.20266,135.047,-1.170089,0.9798071,2.9893
56.25238,121.8235,-1.237628,0.9798071,2.99576
56.30204,119.662,-1.237628,0.9798071,2.99576
56.35303,123.2222,-1.251135,0.9798071,2.9893
56.40286,127.4181,-1.278149,0.9798071,2.99576
56.4525,116.6105,-1.271398,0.9798071,2.99576
56.50229,113.9403,-1.264642,0.9799718,3.002219
56.55178,108.9815,-1.271398,0.9796425,2.99576
56.6038,106.82,-1.244384,0.9798071,2.99576
56.65228,103.8956,-1.257891,0.9796425,2.99576
56.70208,103.5141,-1.230872,0.9798071,3.002219
56.75208,103.1327,-1.224121,0.9798071,3.002219
56.80207,101.2255,-1.345688,0.9798071,3.002219
56.8535,99.19109,-1.406477,0.9796425,3.002219
56.90215,106.0571,-1.46726,0.9799718,3.002219
56.95203,135.4285,-1.480767,0.9798071,3.002219
57.00203,152.7207,-1.50103,0.9798071,3.002219
57.05199,144.9646,-1.494274,0.9796425,3.002219
57.10382,138.0986,-1.480767,0.9798071,3.002219
57.15191,124.4937,-1.474011,0.9798071,3.008678
57.2029,122.8407,-1.433491,0.9796425,3.002219
57.25287,123.7308,-1.399721,0.9798071,3.002219
57.30258,128.181,-1.359195,0.9799718,3.002219
57.35294,117.3734,-1.345688,0.9799718,3.002219
57.40252,111.5245,-1.345688,0.9799718,3.002219
57.45255,109.2358,-1.311919,0.9799718,3.002219
57.50259,106.4386,-1.230872,0.9798071,2.99576
57.55264,105.1671,-1.143075,0.9798071,3.002219
57.60379,104.277,-1.021503,0.9798071,3.002219
57.65261,103.2598,-0.8729173,0.9798071,2.99576
57.70203,101.8612,-0.78512,0.9798071,3.002219
57.75303,99.44539,-0.7310874,0.9798071,2.99576
57.80302,97.66531,-0.6703039,0.9798071,3.002219
57.85403,118.6448,-0.528474,0.9798071,3.002219
57.90215,151.0677,-0.3393626,0.9798071,3.002219
57.95201,148.5248,-0.2515653,0.9798071,3.002219
58.0019,141.1501,-0.1772699,0.9798071,3.002219
58.05215,134.2841,-0.05570285,0.9796425,2.99576
58.10315,122.205,0.06586917,0.9798071,3.002219
58.1519,121.315,0.1671783,0.9798071,2.99576
58.2019,124.8751,0.2279619,0.9798071,2.99576
58.2519,119.7892,0.3427779,0.9798071,2.99576
58.30235,115.4661,0.4778568,0.9799718,2.99576
58.35339,109.1087,0.5386404,0.9798071,2.99576
58.40202,106.3114,0.585917,0.9798071,2.99576
58.4529,105.1671,0.6602074,0.9798071,2.99576
58.50255,104.9128,0.7817794,0.9796425,2.99576
58.55253,102.7513,0.8020422,0.9798071,2.99576
58.6034,102.2427,0.8695817,0.9798071,2.99576
58.65215,100.7169,0.8628258,0.9798071,2.99576
58.70247,98.30104,0.9371161,0.9799718,2.9893
58.7524,97.66531,0.8695817,0.9798071,2.9893
58.80239,111.906,0.835812,0.9798071,2.9893
58.85298,150.3048,0.8087932,0.9796425,2.9893
58.90252,143.6931,0.835812,0.9798071,2.9893
58.95252,135.8099,0.7547656,0.9798071,2.9893
59.0024,125.3837,0.6737193,0.9798071,2.9893
59.05239,117.5005,0.6129308,0.9796425,2.9893
59.10316,120.4249,0.585917,0.9798071,2.982841
59.15193,125.2566,0.4846078,0.9796425,2.982841
59.20292,114.7032,0.3900546,0.9798071,2.982841
59.25292,110.7616,0.2684825,0.9798071,2.982841
59.30257,106.4386,0.2549756,0.9798071,2.982841
59.35376,104.4042,0.1536715,0.9796425,2.982841
59.40256,103.0055,0.07937606,0.9798071,2.982841
59.45301,103.1327,0.0253435,0.9796425,2.976382
59.50224,102.6241,0.01183661,0.9798071,2.976382
59.55292,101.6069,-0.157007,0.9798071,2.976382
59.60383,97.53816,-0.28533,0.9798071,2.976382
59.65239,95.50377,-0.4676856,0.9798071,2.976382
59.70299,103.0055,-0.5419809,0.9799718,2.976382
59.75214,150.9406,-0.6432852,0.9799718,2.969923
59.80265,147.7619,-0.7783641,0.9796425,2.969923
59.85338,135.6828,-0.8796732,0.9798071,2.969923
59.90292,127.0366,-0.8999361,0.9798071,2.963464
59.9523,119.5349,-0.9742265,0.9798071,2.969923
60.00311,120.8064,-1.007996,0.9796425,2.963464
60.05312,124.2394,-1.062029,0.9796425,2.963464
60.10399,121.0607,-1.102549,0.9796425,2.963464
60.15248,113.5589,-1.136319,0.9798071,2.963464
60.20214,107.4557,-1.190352,0.9798071,2.957005
60.253,104.9128,-1.203859,0.9796425,2.957005
60.30251,104.0227,-1.190352,0.9799718,2.957005
60.35341,101.9884,-1.217366,0.9798071,2.957005
60.40206,100.844,-1.237628,0.9798071,2.950546
60.45274,100.0811,-1.230872,0.9798071,2.950546
60.50275,98.80965,-1.305168,0.9798071,2.950546
60.55206,97.02956,-1.392965,0.9798071,2.957005
60.60314,97.15671,-1.50103,0.9798071,2.950546
60.65301,130.9782,-1.528044,0.9796425,2.950546
60.70246,152.5935,-1.521288,0.9798071,2.944087
60.75228,143.0574,-1.507781,0.9799718,2.944087
60.8023,136.9542,-1.494274,0.9798071,2.944087
60.85378,124.2394,-1.480767,0.9796425,2.944087
60.90255,119.662,-1.446998,0.9798071,2.937627
60.95226,121.6964,-1.419984,0.9799718,2.944087
61.00226,125.1294,-1.413228,0.9798071,2.937627
61.05226,117.7548,-1.399721,0.9798071,2.937627
61.10358,112.1602,-1.379458,0.9799718,2.937627
61.1525,107.3286,-1.372707,0.9796425,2.931168
61.2025,104.5313,-1.352444,0.9796425,2.931168
61.25256,103.387,-1.298412,0.9798071,2.937627
61.30256,102.3698,-1.264642,0.9799718,2.931168
61.35353,101.4798,-1.230872,0.9796425,2.931168
61.40214,99.95398,-1.217366,0.9798071,2.924709
61.45203,98.9368,-1.271398,0.9796425,2.931168
61.50204,98.42819,-1.332182,0.9799718,2.931168
61.55275,99.69969,-1.460505,0.9799718,2.924709
61.60377,142.0402,-1.474011,0.9798071,2.924709
61.65248,151.4492,-1.392965,0.9798071,2.924709
61.70248,147.2533,-1.230872,0.9799718,2.924709
61.7523,135.4285,-1.03501,0.9798071,2.91825
61.80355,127.0366,-0.8661664,0.9798071,2.91825
61.85354,120.8064,-0.7175805,0.9799718,2.91825
61.9023,119.7892,-0.4811924,0.9799718,2.91825
61.95326,124.4937,-0.3258557,0.9796425,2.91825
62.00326,121.4421,-0.1840258,0.9798071,2.91825
62.054,111.1431,-0.0624538,0.9798071,2.91825
62.104,105.93,0.07262511,0.9798071,2.911791
62.15226,104.9128,0.2009481,0.9798071,2.911791
62.2033,103.2598,0.329271,0.9796425,2.911791
62.2533,101.4798,0.4305802,0.9796425,2.911791
62.30329,100.5897,0.579161,0.9798071,2.905332
62.354,99.95398,0.6467005,0.9799718,2.911791
62.40252,99.69969,0.6331936,0.9798071,2.905332
62.45224,96.13953,0.71424,0.9799718,2.905332
62.50223,94.48659,0.7952863,0.9798071,2.905332
62.55312,97.9196,0.7885303,0.9798071,2.898872
62.60377,151.4492,0.835812,0.9798071,2.905332
62.6525,144.7103,0.8560698,0.9796425,2.905332
62.7025,135.8099,0.950628,0.9798071,2.905332
62.75286,125.8923,0.9303652,0.9798071,2.898872
62.8043,116.229,0.9438721,0.9796425,2.898872
62.85313,120.2978,0.957379,0.9798071,2.898872
62.90299,124.6208,0.9979047,0.9798071,2.898872
62.95325,115.0847,0.9438721,0.9796425,2.892413
63.00272,111.1431,0.8965955,0.9796425,2.892413
63.05412,105.5485,0.8493189,0.9798071,2.892413
63.10388,102.7513,0.829056,0.9798071,2.892413
63.15324,101.9884,0.7817794,0.9798071,2.892413
63.20279,101.8612,0.71424,0.9798071,2.885954
63.25264,101.0983,0.6804702,0.9798071,2.892413
63.30393,99.95398,0.6061798,0.9798071,2.892413
63.35347,98.04675,0.457594,0.9796425,2.885954
63.40228,94.86804,0.2684825,0.9798071,2.885954
63.45241,103.0055,0.1401596,0.9796425,2.892413
63.50254,104.0227,0.09963889,0.9796425,2.885954
63.55385,148.6519,-0.04894691,0.9798071,2.885954
63.60349,135.4285,-0.1705189,0.9796425,2.879495
63.65262,130.4697,-0.2515653,0.9798071,2.879495
63.70261,117.3734,-0.2515653,0.9799718,2.885954
63.75258,114.7032,-0.3055928,0.9798071,2.885954
63.80349,117.3734,-0.3528695,0.9798071,2.879495
63.85437,122.5864,-0.406902,0.9798071,2.879495
63.90328,111.5245,-0.3933951,0.9798071,2.879495
63.95328,107.8372,-0.4609346,0.9799718,2.879495
64.00225,102.6241,-0.5217181,0.9798071,2.873036
64.05366,102.3698,-0.535225,0.9799718,2.879495
64.10365,100.3354,-0.5622388,0.9799718,2.873036
64.15221,99.82683,-0.6230273,0.9798071,2.879495
64.20311,99.06393,-0.650041,0.9799718,2.873036
64.2534,98.42819,-0.6838108,0.9796425,2.866576
64.30341,96.13953,-0.7783641,0.9796425,2.873036
64.35339,94.86804,-0.906687,0.9796425,2.866576
64.40326,96.90242,-1.03501,0.9798071,2.873036
64.45326,129.3253,-1.095798,0.9796425,2.866576
64.50326,133.9027,-1.136319,0.9798071,2.866576
64.55398,141.5316,-1.197103,0.9796425,2.866576
64.60361,133.3941,-1.210615,0.9796425,2.866576
64.65224,123.095,-1.224121,0.9798071,2.866576
64.70224,118.5177,-1.190352,0.9798071,2.866576
64.75225,118.1362,-1.176845,0.9798071,2.860117
64.80366,123.2222,-1.183596,0.9798071,2.860117
64.85399,113.1774,-1.176845,0.9798071,2.866576
64.90278,108.3458,-1.163333,0.9798071,2.860117
64.95278,105.6757,-1.170089,0.9798071,2.860117
65.00253,103.387,-1.156582,0.9896896,2.860117
65.0541,101.8612,-1.122812,0.9896896,2.853658
65.10378,100.9712,-1.095798,0.9896896,2.853658
65.15278,99.69969,-1.082287,0.9898543,2.853658
65.20335,99.44539,-1.062029,0.9896896,2.853658
65.25326,96.77527,-1.116056,0.9898543,2.860117
65.30365,94.48659,-1.176845,0.9896896,2.853658
65.35352,95.12233,-1.284905,0.9898543,2.853658
65.40264,103.7684,-1.318675,0.9896896,2.853658
65.4529,150.9406,-1.311919,0.9898543,2.853658
65.50304,147.5076,-1.284905,0.9898543,2.847199
65.5544,134.5384,-1.257891,0.9896896,2.847199
65.60391,121.4421,-1.210615,0.9896896,2.847199
65.65243,118.8991,-1.190352,0.9898543,2.847199
65.70264,120.8064,-1.122812,0.9898543,2.847199
65.75226,124.6208,-1.075536,0.9898543,2.847199
65.80324,115.5933,-1.00124,0.9898543,2.847199
65.85427,112.2874,-0.913443,0.9898543,2.84074
65.90309,106.82,-0.7986269,0.9898543,2.847199
65.95314,104.0227,-0.6905667,0.9898543,2.84074
66.00253,103.0055,-0.5419809,0.9898543,2.847199
66.05377,102.7513,-0.3798882,0.9896896,2.84074
66.10361,101.2255,-0.2380534,0.9896896,2.84074
66.15224,99.95398,-0.1232373,0.9898543,2.84074
66.20238,98.6825,-0.02868408,0.9898543,2.84074
66.2524,94.86804,0.03209944,0.9898543,2.84074
66.30364,91.81647,0.09963889,0.9896896,2.834281
66.35352,103.387,0.1671783,0.9896896,2.834281
66.4034,132.504,0.2347178,0.9898543,2.84074
66.45321,148.6519,0.3157642,0.9898543,2.834281
66.5034,144.0746,0.4170683,0.9896896,2.834281
66.55452,133.9027,0.4778568,0.9900191,2.834281
66.60405,116.3562,0.5589032,0.9898543,2.834281
66.65277,115.0847,0.5994239,0.9896896,2.834281
66.70277,118.8991,0.71424,0.9898543,2.834281
66.75289,123.2222,0.7480097,0.9896896,2.834281
66.80369,112.2874,0.7885303,0.9896896,2.834281
66.85364,106.5657,0.829056,0.9896896,2.827821
66.90352,104.5313,0.9033464,0.9896896,2.827821
66.95309,102.2427,0.9168583,0.9898543,2.827821
67.00247,101.2255,0.9371161,0.9898543,2.827821
67.05352,100.0811,1.018162,0.9898543,2.827821
67.10343,99.31824,1.031674,0.9896896,2.827821
67.1532,98.55534,0.9776418,0.9898543,2.827821
67.20318,97.28386,0.9168583,0.9898543,2.827821
67.25264,94.61374,0.8223001,0.9898543,2.827821
67.30347,96.13953,0.7750235,0.9898543,2.821362
67.35447,134.2841,0.7007331,0.9898543,2.821362
67.4026,141.913,0.5994239,0.9900191,2.827821
67.45235,134.7927,0.5183775,0.9896896,2.827821
67.50235,130.4697,0.4981147,0.9898543,2.821362
67.55423,114.3218,0.3832986,0.9896896,2.821362
67.60348,112.6688,0.336022,0.9898543,2.821362
67.6531,115.7204,0.2279619,0.9898543,2.821362
67.70288,120.4249,0.1874362,0.9898543,2.821362
67.75272,112.2874,0.1131458,0.9898543,2.821362
67.80447,106.5657,0.04560633,0.9898543,2.821362
67.85356,103.387,-0.01517718,0.9898543,2.814903
67.90347,101.4798,-0.02868408,0.9898543,2.814903
67.95334,100.0811,-0.08947258,0.9898543,2.814903
68.00237,99.57254,-0.1435001,0.9898543,2.821362
68.05347,99.57254,-0.163763,0.9898543,2.814903
68.10446,98.04675,-0.2042837,0.9896896,2.814903
68.15319,97.66531,-0.3258557,0.9898543,2.814903
68.20322,94.74089,-0.4474277,0.9898543,2.814903
68.25276,97.66531,-0.5487319,0.9898543,2.814903
68.30394,127.1638,-0.5960085,0.9896896,2.808444
68.354,151.9578,-0.650041,0.9898543,2.814903
68.4033,142.1673,-0.7445943,0.9898543,2.814903
68.453,134.9198,-0.7986269,0.9896896,2.814903
68.50301,122.3321,-0.791871,0.9898543,2.808444
68.55401,116.6105,-0.791871,0.9898543,2.808444
68.60347,119.662,-0.7716131,0.9898543,2.808444
68.65296,124.3665,-0.791871,0.9898543,2.808444
68.70296,114.0675,-0.7986269,0.9898543,2.808444
68.75296,110.6345,-0.791871,0.9898543,2.808444
68.80426,105.6757,-0.7986269,0.9898543,2.808444
68.85448,103.1327,-0.8053828,0.9898543,2.808444
68.90324,101.4798,-0.7648572,0.9896896,2.808444
68.95301,101.4798,-0.7783641,0.9896896,2.808444
69.003,100.3354,-0.7986269,0.9898543,2.801985
69.05447,99.19109,-0.78512,0.9896896,2.801985
69.10347,98.42819,-0.8053828,0.9898543,2.801985
69.1535,95.88522,-0.8999361,0.9896896,2.808444
69.20324,92.57936,-1.00124,0.9898543,2.801985
69.25321,98.80965,-1.048522,0.9898543,2.801985
69.30449,152.2121,-1.055273,0.9898543,2.801985
69.35448,148.6519,-1.062029,0.9896896,2.795526
69.40249,137.0814,-1.102549,0.9896896,2.801985
69.45348,125.8923,-1.102549,0.9896896,2.801985
69.50347,121.0607,-1.089043,0.9896896,2.801985
69.55448,120.1706,-1.041766,0.9896896,2.801985
69.60447,125.5108,-1.021503,0.9898543,2.801985
69.65307,126.7823,-1.028259,0.9898543,2.795526
69.703,114.8304,-0.9877334,0.9900191,2.801985
69.75296,108.9815,-0.9877334,0.9898543,2.795526
69.80396,106.0571,-0.9809824,0.9898543,2.795526
69.85445,104.9128,-0.9472127,0.9896896,2.801985
69.90308,103.0055,-0.8999361,0.9898543,2.801985
69.953,101.6069,-0.8864292,0.9900191,2.795526
70.003,101.3526,-0.8594104,0.9898543,2.801985
70.05434,100.7169,-0.8729173,0.9896896,2.795526
70.10427,98.42819,-0.9269499,0.9896896,2.789066
70.153,95.24948,-1.021503,0.9898543,2.795526
70.20271,103.0055,-1.082287,0.9900191,2.795526
70.25325,140.8958,-1.089043,0.9896896,2.789066
70.30427,150.3048,-1.041766,0.9896896,2.795526
70.35458,135.047,-0.9201939,0.9898543,2.789066
70.4032,126.7823,-0.7986269,0.9898543,2.795526
70.45296,119.9163,-0.6905667,0.9898543,2.795526
70.50283,118.8991,-0.5014552,0.9898543,2.789066
70.55457,121.0607,-0.3528695,0.9898543,2.789066
70.6042,123.9851,-0.2245465,0.9898543,2.789066
70.65257,113.686,-0.1097304,0.9896896,2.789066
70.70329,110.6345,0.03885538,0.9896896,2.789066
70.75322,105.8028,0.1469155,0.9898543,2.789066
70.80434,102.6241,0.2617316,0.9898543,2.789066
70.85419,101.8612,0.3697917,0.9896896,2.789066
70.9027,101.8612,0.5116266,0.9900191,2.789066
70.95358,101.0983,0.5656542,0.9898543,2.789066
71.00333,100.3354,0.6196867,0.9898543,2.789066
71.05452,98.80965,0.6129308,0.9898543,2.789066
71.10387,96.64812,0.6669633,0.9896896,2.782607
71.1526,117.2462,0.707484,0.9898543,2.789066
71.2033,152.4664,0.7480097,0.9898543,2.789066
71.25277,149.5419,0.7885303,0.9898543,2.789066
71.3036,138.2257,0.8493189,0.9898543,2.782607
71.35441,131.1054,0.9033464,0.9898543,2.782607
71.40282,119.662,0.9033464,0.9898543,2.782607
71.45278,119.2806,0.9371161,0.9898543,2.782607
71.50333,124.748,0.9979047,0.9898543,2.782607
71.55441,127.6724,1.018162,0.9898543,2.782607
71.60409,115.4661,1.011412,0.9898543,2.782607
71.65253,111.1431,0.957379,0.9898543,2.782607
71.70334,106.82,0.9776418,0.9896896,2.782607
71.75307,105.6757,0.9303652,0.9896896,2.782607
71.80408,104.9128,0.9168583,0.9898543,2.776148
71.85382,104.0227,0.8155491,0.9896896,2.782607
71.90374,103.0055,0.8087932,0.9896896,2.782607
71.95358,102.2427,0.707484,0.9898543,2.782607
72.0032,97.28386,0.5589032,0.9898543,2.782607
72.05455,98.80965,0.3697917,0.9896896,2.776148
72.10355,112.796,0.3022523,0.9898543,2.782607
72.15343,151.1949,0.207699,0.9898543,2.782607
72.20319,146.4904,0.1199017,0.9898543,2.782607
72.25319,135.8099,0.03209944,0.9898543,2.776148
72.30473,123.9851,-0.01517718,0.9896896,2.776148
72.35444,120.5521,-0.05570285,0.9898543,2.776148
72.40306,123.3493,-0.1029795,0.9896896,2.776148
72.45298,127.9267,-0.163763,0.9898543,2.776148
72.50343,118.1362,-0.1907768,0.9898543,2.776148
72.55438,114.1946,-0.2313024,0.9898543,2.776148
72.60432,109.2358,-0.2718231,0.9898543,2.776148
72.65307,107.2015,-0.3190998,0.9898543,2.782607
72.70269,105.93,-0.3326116,0.9898543,2.776148
72.75269,105.1671,-0.406902,0.9898543,2.776148
72.8042,104.4042,-0.4541787,0.9898543,2.776148
72.85406,103.387,-0.4811924,0.9896896,2.776148
72.90271,101.0983,-0.5689947,0.9898543,2.776148
72.95285,98.80965,-0.663548,0.9898543,2.776148
73.00269,98.6825,-0.7716131,0.9898543,2.776148
73.05379,121.9507,-0.8256407,0.9898543,2.769689
73.10469,150.9406,-0.8526595,0.9896896,2.776148
73.15343,145.6003,-0.906687,0.9896896,2.776148
73.20355,137.7171,-0.9877334,0.9896896,2.769689
73.25352,128.8167,-1.014752,0.9898543,2.776148
73.30402,124.3665,-1.00124,0.9898543,2.769689
73.35369,126.9095,-0.9674755,0.9898543,2.769689
73.40258,130.3425,-0.9742265,0.9900191,2.769689
73.45319,120.5521,-0.9607196,0.9898543,2.776148
73.50378,119.7892,-0.9404567,0.9898543,2.769689
73.55381,111.3974,-0.9337058,0.9898543,2.776148
73.60481,109.4901,-0.9201939,0.9896896,2.769689
73.65354,108.3458,-0.913443,0.9896896,2.769689
73.70286,107.2015,-0.8796732,0.9898543,2.769689
73.75385,105.5485,-0.8931801,0.9898543,2.769689
73.80386,103.6413,-0.8864292,0.9898543,2.769689
73.85384,102.2427,-0.9201939,0.9896896,2.769689
73.90329,100.2083,-0.9607196,0.9898543,2.769689
73.95381,97.9196,-1.082287,0.9898543,2.769689
74.00368,135.8099,-1.143075,0.9896896,2.769689
74.05381,152.3392,-1.149826,0.9898543,2.769689
74.10487,149.4148,-1.143075,0.9898543,2.769689
74.15318,143.3117,-1.149826,0.9896896,2.769689
74.20318,138.0986,-1.122812,0.9898543,2.769689
74.25318,126.7823,-1.116056,0.9896896,2.769689
74.30427,126.4009,-1.082287,0.9896896,2.769689
74.35368,130.5968,-1.062029,0.9898543,2.769689
74.40366,123.3493,-1.055273,0.9898543,2.76323
74.45355,118.0091,-1.041766,0.9896896,2.769689
74.50318,115.7204,-1.021503,0.9896896,2.769689
74.55365,111.3974,-1.021503,0.9898543,2.769689
74.60468,108.8544,-0.9809824,0.9898543,2.769689
74.65331,107.2015,-0.9404567,0.9898543,2.769689
74.70306,105.6757,-0.8999361,0.9896896,2.769689
74.75281,104.7856,-0.8864292,0.9896896,2.769689
74.80405,101.8612,-0.8323966,0.9898543,2.76323
74.8538,99.95398,-0.8661664,0.9896896,2.76323
74.90347,98.55534,-0.906687,0.9898543,2.769689
74.95297,99.06393,-0.9742265,0.9898543,2.76323
75.00297,141.7859,-0.9944893,0.9898543,2.76323
75.05459,152.7207,-0.8999361,0.9898543,2.76323
75.10414,148.7791,-0.7513502,0.9898543,2.769689
75.15366,141.4044,-0.650041,0.9896896,2.76323
75.20356,130.724,-0.528474,0.9896896,2.76323
75.25305,123.9851,-0.4001461,0.9896896,2.76323
75.30401,125.638,-0.2245465,0.9896896,2.76323
75.35431,129.1982,-0.08271664,0.9898543,2.76323
75.4028,121.9507,0.01183661,0.9896896,2.76323
75.4538,116.229,0.09963889,0.9898543,2.76323
75.5038,111.7788,0.2279619,0.9898543,2.76323
75.5542,109.4901,0.329271,0.9898543,2.76323
75.60394,107.71,0.4170683,0.9898543,2.76323
75.65356,107.0743,0.4711009,0.9898543,2.76323
75.70317,105.2942,0.585917,0.9898543,2.76323
75.75368,103.2598,0.6467005,0.9900191,2.76323
75.80418,101.3526,0.7209959,0.9898543,2.76323
75.85493,99.95398,0.7345028,0.9896896,2.76323
75.90367,97.28386,0.7885303,0.9898543,2.76323
75.9528,97.28386,0.8020422,0.9898543,2.76323
76.00342,126.4009,0.8155491,0.9898543,2.76323
76.05466,151.8306,0.835812,0.9896896,2.756771
76.10469,148.0162,0.8830886,0.9898543,2.756771
76.15365,139.7515,0.9168583,0.9896896,2.76323
76.20354,131.1054,0.9303652,0.9898543,2.76323
76.25317,122.205,0.9438721,0.9898543,2.76323
76.30442,122.8407,0.9641349,0.9898543,2.756771
76.35376,126.2737,0.950628,0.9896896,2.756771
76.40346,120.2978,0.9236093,0.9898543,2.76323
76.45393,113.9403,0.8763326,0.9896896,2.756771
76.50391,110.7616,0.9168583,0.9898543,2.76323
76.55455,108.3458,0.8763326,0.9900191,2.756771
76.60406,105.2942,0.7885303,0.9898543,2.76323
76.65342,104.0227,0.7209959,0.9896896,2.756771
76.70341,104.1499,0.71424,0.9898543,2.76323
76.75322,102.2427,0.6669633,0.9898543,2.76323
76.80444,101.0983,0.5656542,0.9898543,2.756771
76.85421,99.95398,0.3900546,0.9898543,2.756771
76.90293,96.52097,0.2617316,0.9898543,2.756771
76.95319,101.4798,0.1063899,0.9898543,2.756771
77.00321,130.8511,-0.001670288,0.9898543,2.756771
77.0547,150.6863,-0.1097304,0.9896896,2.756771
77.10458,141.6587,-0.2177956,0.9898543,2.756771
77.15295,135.4285,-0.2718231,0.9898543,2.756771
77.20372,125.1294,-0.3393626,0.9898543,2.756771
77.25371,121.315,-0.3866392,0.9898543,2.756771
77.30493,121.6964,-0.3933951,0.9896896,2.750311
77.35454,126.7823,-0.413658,0.9898543,2.756771
77.40343,116.1019,-0.5014552,0.9898543,2.756771
77.45321,111.7788,-0.5554878,0.9896896,2.756771
77.5032,109.6173,-0.5960085,0.9896896,2.750311
77.55415,106.0571,-0.6297783,0.9900191,2.756771
77.60389,103.6413,-0.656797,0.9898543,2.756771
77.65369,103.7684,-0.7445943,0.9896896,2.756771
77.70317,103.0055,-0.7783641,0.9898543,2.750311
77.75288,102.2427,-0.8053828,0.9898543,2.750311
77.80392,99.19109,-0.9201939,0.9898543,2.750311
77.85392,97.28386,-1.007996,0.9896896,2.750311
77.9039,96.13953,-1.102549,0.9898543,2.756771
77.95298,104.6585,-1.149826,0.9900191,2.756771
78.00292,153.2293,-1.156582,0.9896896,2.756771
78.0542,151.0677,-1.163333,0.9898543,2.756771
78.1042,139.8786,-1.197103,0.9898543,2.750311
78.15377,134.6656,-1.197103,0.9898543,2.750311
78.20337,123.095,-1.183596,0.9896896,2.750311
78.25291,122.8407,-1.149826,0.9898543,2.756771
78.3044,125.1294,-1.109305,0.9896896,2.750311
78.35413,121.4421,-1.082287,0.9898543,2.750311
78.40363,116.1019,-1.075536,0.9898543,2.756771
78.45374,108.7272,-1.082287,0.9898543,2.750311
78.50389,107.5829,-1.062029,0.9896896,2.750311
78.55489,106.3114,-1.014752,0.9898543,2.750311
78.60478,105.6757,-0.9742265,0.9900191,2.750311
78.65401,104.5313,-1.00124,0.9798071,2.750311
78.70377,104.0227,-0.9742265,0.9798071,2.750311
78.75364,100.9712,-0.9269499,0.9798071,2.743852
78.80386,100.5897,-1.014752,0.9798071,2.750311
78.854,96.90242,-1.095798,0.9798071,2.750311
78.90292,104.277,-1.197103,0.9798071,2.750311
78.9539,124.3665,-1.244384,0.9799718,2.750311
79.00301,155.8994,-1.251135,0.9798071,2.750311
79.05432,148.6519,-1.237628,0.9798071,2.750311
79.10416,140.2601,-1.197103,0.9798071,2.750311
79.15388,129.1982,-1.163333,0.9798071,2.750311
79.20358,122.0779,-1.129568,0.9798071,2.750311
79.25369,125.0023,-1.095798,0.9799718,2.750311
79.30484,128.8167,-1.06878,0.9799718,2.750311
79.35504,116.9919,-1.014752,0.9798071,2.750311
79.40402,115.339,-1.007996,0.9798071,2.750311
79.45332,110.6345,-1.00124,0.9799718,2.750311
79.50379,109.8716,-0.9742265,0.9799718,2.750311
79.5542,104.5313,-0.9337058,0.9798071,2.750311
79.60503,104.5313,-0.8729173,0.9798071,2.743852
79.65391,103.0055,-0.8594104,0.9798071,2.750311
79.70393,101.0983,-0.8256407,0.9799718,2.750311
79.75391,99.82683,-0.791871,0.9799718,2.743852
79.80485,97.53816,-0.8256407,0.9798071,2.750311
79.85492,95.75809,-0.8729173,0.9798071,2.743852
79.90369,98.42819,-0.8931801,0.9798071,2.743852
79.95315,145.0918,-0.8323966,0.9798071,2.743852
80.0031,152.5935,-0.7378433,0.9798071,2.743852
80.05453,144.0746,-0.6162713,0.9799718,2.750311
80.1044,138.0986,-0.4879484,0.9798071,2.743852
80.15314,126.528,-0.3866392,0.9798071,2.743852
80.204,122.205,-0.2515653,0.9798071,2.743852
80.25291,122.0779,-0.1097304,0.9798071,2.750311
80.30418,126.4009,0.03209944,0.9798071,2.743852
80.354,115.4661,0.1334086,0.9798071,2.743852
80.40366,114.3218,0.2279619,0.9798071,2.743852
80.45369,108.0915,0.3225151,0.9798071,2.743852
80.50317,106.4386,0.4440871,0.9798071,2.743852
80.55415,104.4042,0.5251335,0.9799718,2.743852
80.60394,103.7684,0.6196867,0.9798071,2.743852
80.65321,102.8784,0.6602074,0.9799718,2.743852
80.70416,102.2427,0.7750235,0.9798071,2.743852
80.75316,99.44539,0.8223001,0.9799718,2.743852
80.80489,98.42819,0.8425629,0.9799718,2.750311
80.85444,95.63092,0.8087932,0.9798071,2.743852
80.90316,96.13953,0.8560698,0.9799718,2.743852
80.95295,135.1741,0.8560698,0.9798071,2.743852
81.00316,152.5935,0.8493189,0.9799718,2.743852
81.05437,140.8958,0.8087932,0.9799718,2.743852
81.10444,135.8099,0.8087932,0.9799718,2.743852
81.15331,125.1294,0.7885303,0.9798071,2.743852
81.20299,120.1706,0.71424,0.9798071,2.743852
81.25295,123.2222,0.6737193,0.9798071,2.743852
81.30415,125.638,0.5656542,0.9798071,2.737393
81.35397,115.2118,0.5386404,0.9799718,2.743852
81.40374,112.1602,0.4305802,0.9798071,2.737393
81.4538,107.9643,0.3562848,0.9798071,2.743852
81.50373,107.9643,0.3157642,0.9798071,2.743852
81.55444,105.1671,0.2955013,0.9799718,2.743852
81.60512,103.2598,0.2212059,0.9798071,2.743852
81.654,102.2427,0.1334086,0.9798071,2.743852
81.70396,101.2255,0.1199017,0.9798071,2.743852
81.75395,99.06393,0.03209944,0.9798071,2.743852
81.80498,96.52097,-0.1299933,0.9799718,2.743852
81.85468,100.3354,-0.2988419,0.9798071,2.743852
81.90343,145.8546,-0.3596254,0.9798071,2.743852
81.95343,151.4492,-0.413658,0.9798071,2.743852
82.00338,142.8031,-0.4947043,0.9798071,2.743852
82.05431,136.0642,-0.5149621,0.9798071,2.743852
82.10414,124.748,-0.5082112,0.9798071,2.743852
82.15391,120.4249,-0.5149621,0.9798071,2.743852
82.20323,120.4249,-0.5149621,0.9798071,2.743852
82.25312,124.3665,-0.535225,0.9799718,2.743852
82.30443,117.7548,-0.528474,0.9798071,2.743852
82.35443,113.4317,-0.5082112,0.9798071,2.743852
82.40314,108.3458,-0.528474,0.9798071,2.743852
82.45397,105.5485,-0.5419809,0.9798071,2.743852
82.50389,104.7856,-0.5217181,0.9798071,2.743852
82.55451,104.0227,-0.4947043,0.9799718,2.737393
82.60422,103.5141,-0.528474,0.9798071,2.737393
82.65401,101.4798,-0.5487319,0.9798071,2.737393
82.70366,100.9712,-0.5622388,0.9799718,2.737393
82.75353,99.57254,-0.650041,0.9798071,2.743852
82.80409,98.04675,-0.7513502,0.9799718,2.743852
82.8545,125.638,-0.8796732,0.9798071,2.737393
82.9031,155.7722,-0.8931801,0.9798071,2.743852
82.95428,152.2121,-0.8931801,0.9799718,2.737393
83.00399,143.6931,-0.9337058,0.9798071,2.737393
83.05492,136.1913,-0.8999361,0.9798071,2.737393
83.10488,125.638,-0.8796732,0.9798071,2.737393
83.15338,124.748,-0.8526595,0.9798071,2.737393
83.20325,125.1294,-0.8391476,0.9799718,2.737393
83.25427,129.8339,-0.8459035,0.9799718,2.737393
83.30528,117.7548,-0.8391476,0.9798071,2.737393
83.35511,113.4317,-0.8121338,0.9798071,2.737393
83.40375,110.253,-0.8323966,0.9798071,2.737393
83.45408,107.9643,-0.8323966,0.9798071,2.737393
83.50401,106.82,-0.791871,0.9798071,2.737393
83.55502,105.5485,-0.7648572,0.9799718,2.737393
83.60463,105.1671,-0.7513502,0.9798071,2.737393
83.65424,103.0055,-0.7716131,0.9798071,2.737393
83.70342,100.9712,-0.8053828,0.9798071,2.737393
83.75339,98.6825,-0.9269499,0.9798071,2.737393
83.80487,100.9712,-1.055273,0.9798071,2.737393
83.85442,128.8167,-1.116056,0.9798071,2.737393
83.90414,155.7722,-1.122812,0.9798071,2.737393
83.9535,149.4148,-1.109305,0.9798071,2.737393
84.00337,142.5488,-1.102549,0.9798071,2.737393
84.05425,131.8683,-1.089043,0.9798071,2.737393
84.10525,124.3665,-1.055273,0.9798071,2.737393
84.1535,124.8751,-1.021503,0.9798071,2.737393
84.2035,128.8167,-1.014752,0.9799718,2.730934
84.25316,124.1122,-1.00124,0.9798071,2.737393
84.30415,116.229,-0.9607196,0.9898543,2.737393
84.35413,111.7788,-0.9269499,0.9898543,2.737393
84.40414,109.1087,-0.8931801,0.9900191,2.737393
84.45345,107.9643,-0.8459035,0.9896896,2.737393
84.50378,106.82,-0.7513502,0.9898543,2.737393
84.55492,105.5485,-0.6838108,0.9898543,2.737393
84.60487,104.1499,-0.5892575,0.9900191,2.737393
84.65318,103.0055,-0.5419809,0.9898543,2.737393
84.70374,99.82683,-0.5149621,0.9898543,2.737393
84.75438,97.66531,-0.4811924,0.9898543,2.730934
84.80499,111.3974,-0.4541787,0.9898543,2.730934
84.85422,153.7379,-0.3798882,0.9898543,2.737393
84.90388,152.7207,-0.2313024,0.9898543,2.737393
84.95371,141.6587,-0.09622353,0.9898543,2.730934
85.00362,137.59,0.0253435,0.9898543,2.730934
85.0545,123.8579,0.1266527,0.9898543,2.737393
85.10538,122.0779,0.2819944,0.9898543,2.730934
85.15413,128.4353,0.4170683,0.9898543,2.730934
85.20414,129.5796,0.4508381,0.9898543,2.730934
85.2541,118.1362,0.4913637,0.9898543,2.737393
85.30518,112.1602,0.5926729,0.9896896,2.730934
85.35498,108.3458,0.71424,0.9898543,2.730934
85.40366,106.82,0.71424,0.9896896,2.730934
85.4536,105.5485,0.7615166,0.9896896,2.737393
85.50336,105.1671,0.8628258,0.9896896,2.730934
85.55465,103.6413,0.9776418,0.9898543,2.730934
85.60438,102.8784,0.9843928,0.9898543,2.730934
85.65414,101.4798,0.9303652,0.9898543,2.730934
85.70366,97.28386,0.9776418,0.9898543,2.730934
85.75319,105.1671,0.950628,0.9898543,2.737393
85.80515,141.2773,0.950628,0.9900191,2.730934
85.85498,153.7379,0.9303652,0.9898543,2.730934
85.90366,144.456,0.9438721,0.9898543,2.730934
85.95337,138.7343,0.9236093,0.9898543,2.730934
86.00339,125.1294,0.8425629,0.9898543,2.730934
86.05536,121.6964,0.7682725,0.9900191,2.730934
86.10499,122.8407,0.71424,0.9896896,2.730934
86.15374,128.4353,0.6534564,0.9898543,2.730934
86.20374,117.7548,0.5589032,0.9898543,2.730934
86.25374,113.3046,0.4508381,0.9896896,2.730934
86.30523,109.6173,0.3832986,0.9898543,2.730934
86.35527,107.4557,0.3495289,0.9898543,2.730934
86.40398,106.0571,0.2684825,0.9900191,2.730934
86.45398,104.1499,0.1739293,0.9898543,2.724475
86.50416,103.387,0.1401596,0.9898543,2.724475
86.55518,101.8612,0.1131458,0.9900191,2.730934
86.60435,100.2083,-0.03544002,0.9900191,2.730934
86.65424,98.30104,-0.2448093,0.9898543,2.724475
86.70395,98.30104,-0.406902,0.9898543,2.730934
86.7539,111.3974,-0.5014552,0.9898543,2.724475
86.80457,151.7035,-0.6095204,0.9898543,2.724475
86.85424,142.1673,-0.7175805,0.9896896,2.730934
86.90378,137.7171,-0.8188897,0.9898543,2.730934
86.95431,125.0023,-0.8459035,0.9898543,2.730934
87.0035,122.8407,-0.9337058,0.9898543,2.730934
87.05498,123.9851,-0.9809824,0.9900191,2.724475
87.10448,126.528,-1.062029,0.9900191,2.730934
87.15425,116.4833,-1.116056,0.9898543,2.724475
87.20415,114.9575,-1.136319,0.9898543,2.724475
87.25398,110.5073,-1.149826,0.9896896,2.730934
87.3049,107.2015,-1.143075,0.9898543,2.724475
87.35469,105.1671,-1.109305,0.9898543,2.730934
87.40437,105.5485,-1.06878,0.9896896,2.724475
87.45387,104.9128,-1.075536,0.9898543,2.730934
87.50348,104.5313,-1.048522,0.9898543,2.724475
87.55473,102.6241,-1.021503,0.9900191,2.724475
87.60434,99.82683,-1.122812,0.9900191,2.724475
87.65433,97.28386,-1.197103,0.9900191,2.724475
87.70358,107.2015,-1.278149,0.9898543,2.730934
87.75347,152.2121,-1.271398,0.9898543,2.730934
87.80435,154.8822,-1.271398,0.9896896,2.724475
87.85535,142.4216,-1.271398,0.9900191,2.724475
87.90346,136.4456,-1.264642,0.9898543,2.730934
87.95373,127.1638,-1.257891,0.9898543,2.724475
88.0036,123.9851,-1.224121,0.9898543,2.724475
88.0551,124.748,-1.197103,0.9898543,2.724475
88.10473,128.6896,-1.190352,0.9898543,2.724475
88.15337,117.5005,-1.170089,0.9898543,2.724475
88.20345,113.4317,-1.163333,0.9898543,2.724475
88.25337,109.4901,-1.156582,0.9898543,2.730934
88.30489,107.5829,-1.116056,0.9898543,2.724475
88.3546,105.93,-1.048522,0.9900191,2.724475
88.40332,105.8028,-1.048522,0.9898543,2.724475
88.45336,103.7684,-1.048522,0.9898543,2.724475
88.50446,103.0055,-1.007996,0.9898543,2.724475
88.55544,101.4798,-1.03501,0.9898543,2.724475
88.60537,98.80965,-1.116056,0.9900191,2.724475
88.65445,96.90242,-1.224121,0.9898543,2.724475
88.70441,104.9128,-1.291661,0.9898543,2.724475
88.7544,155.3908,-1.278149,0.9898543,2.724475
88.80445,153.2293,-1.251135,0.9900191,2.724475
88.85512,141.913,-1.197103,0.9896896,2.724475
88.90382,135.6828,-1.129568,0.9898543,2.718016
88.95345,125.7652,-1.014752,0.9898543,2.724475
89.00346,123.7308,-0.8999361,0.9898543,2.730934
89.05497,125.2566,-0.791871,0.9898543,2.730934
89.10472,128.8167,-0.6703039,0.9898543,2.724475
89.15366,116.9919,-0.535225,0.9900191,2.724475
89.20343,111.5245,-0.4339158,0.9898543,2.724475
89.25348,110.7616,-0.3123488,0.9898543,2.724475
89.30444,106.82,-0.1435001,0.9900191,2.730934
89.35445,106.0571,-0.008426228,0.9898543,2.730934
89.40444,105.6757,0.04560633,0.9900191,2.724475
89.45394,105.4214,0.1536715,0.9896896,2.730934
89.50384,103.2598,0.2887454,0.9896896,2.730934
89.55497,100.5897,0.3495289,0.9898543,2.730934
89.60473,98.30104,0.3765477,0.9898543,2.730934
89.65347,103.7684,0.3630408,0.9896896,2.730934
89.70442,123.2222,0.464345,0.9898543,2.730934
89.75397,152.2121,0.579161,0.9898543,2.730934
89.80522,143.9474,0.6061798,0.9898543,2.737393
89.85521,137.4628,0.6399496,0.9898543,2.737393
89.90367,125.638,0.6939771,0.9896896,2.737393
89.9541,123.7308,0.7817794,0.9898543,2.737393
90.00384,126.6552,0.7885303,0.9898543,2.737393
90.05484,130.8511,0.8155491,0.9900191,2.737393
90.10471,118.8991,0.8560698,0.9898543,2.737393
90.15421,116.3562,0.9438721,0.9898543,2.737393
90.20396,113.0503,0.9168583,0.9900191,2.743852
90.25355,108.9815,0.8965955,0.9896896,2.737393
90.30531,107.5829,0.8965955,0.9798071,2.737393
90.35497,107.5829,0.9236093,0.9798071,2.737393
90.40377,106.5657,0.8425629,0.9799718,2.743852
90.45341,105.2942,0.7345028,0.9798071,2.743852
90.50448,103.1327,0.6399496,0.9798071,2.737393
90.55491,100.3354,0.5589032,0.9798071,2.743852
90.60455,108.8544,0.4170683,0.9799718,2.743852
90.65434,152.4664,0.2684825,0.9798071,2.743852
90.70371,153.4836,0.2279619,0.9798071,2.743852
90.75412,141.7859,0.1469155,0.9799718,2.743852
90.80521,136.8271,0.005085652,0.9799718,2.743852
90.85471,123.3493,-0.08947258,0.9798071,2.750311
90.90448,122.0779,-0.1097304,0.9799718,2.750311
90.95357,125.2566,-0.1502561,0.9798071,2.743852
91.00433,129.9611,-0.2313024,0.9798071,2.750311
91.05548,118.2634,-0.3326116,0.9798071,2.750311
91.10556,113.4317,-0.4271649,0.9798071,2.743852
91.15359,110.1259,-0.4744415,0.9799718,2.750311
91.20434,108.8544,-0.5217181,0.9799718,2.750311
91.25433,107.3286,-0.6095204,0.9798071,2.756771
91.30555,106.4386,-0.663548,0.9898543,2.750311
91.35487,105.2942,-0.656797,0.9898543,2.750311
91.40459,105.4214,-0.8323966,0.9898543,2.750311
91.45433,101.4798,-0.9201939,0.9898543,2.750311
91.5042,100.5897,-1.014752,0.9898543,2.750311
91.5548,104.7856,-1.041766,0.9898543,2.756771
91.60458,156.2808,-1.06878,0.9898543,2.750311
91.65434,147.6347,-1.143075,0.9898543,2.750311
91.70421,143.566,-1.237628,0.9896896,2.750311
91.75385,130.0882,-1.237628,0.9900191,2.756771
91.80488,126.1466,-1.244384,0.9900191,2.750311
91.85457,126.6552,-1.210615,0.9898543,2.756771
91.90458,130.724,-1.170089,0.9898543,2.750311
91.95438,122.5864,-1.143075,0.9898543,2.756771
92.00359,118.6448,-1.143075,0.9898543,2.756771
92.05508,112.6688,-1.129568,0.9898543,2.756771
92.10469,111.0159,-1.095798,0.9898543,2.756771
92.15454,109.6173,-1.062029,0.9900191,2.756771
92.2046,108.6001,-1.062029,0.9898543,2.756771
92.2546,106.9472,-1.028259,0.9898543,2.756771
92.3046,105.1671,-1.021503,0.9898543,2.756771
92.35547,102.7513,-1.062029,0.9898543,2.76323
92.40385,100.3354,-1.143075,0.9898543,2.76323
92.45384,116.229,-1.197103,0.9898543,2.76323
92.50385,136.4456,-1.217366,0.9896896,2.76323
92.55479,155.7722,-1.190352,0.9898543,2.769689
92.60509,145.6003,-1.176845,0.9900191,2.769689
92.65385,141.4044,-1.183596,0.9898543,2.769689
92.7036,128.5624,-1.136319,0.9898543,2.776148
92.75437,126.6552,-1.055273,0.9898543,2.776148
92.80511,129.1982,-0.9539636,0.9900191,2.782607
92.85511,132.3769,-0.8188897,0.9896896,2.782607
92.90385,118.8991,-0.6838108,0.9898543,2.782607
92.9546,116.3562,-0.5419809,0.9900191,2.782607
93.00412,112.1602,-0.3866392,0.9898543,2.789066
93.05563,109.9987,-0.2313024,0.9898543,2.789066
93.10545,107.8372,-0.1232373,0.9896896,2.795526
93.15366,107.2015,0.04560633,0.9898543,2.795526
93.20432,105.93,0.1604224,0.9898543,2.795526
93.25433,105.5485,0.2212059,0.9898543,2.801985
93.30559,101.0983,0.3090082,0.9898543,2.801985
93.35529,100.2083,0.4103174,0.9898543,2.808444
93.40384,128.3081,0.4778568,0.9898543,2.808444
93.45382,156.1537,0.5251335,0.9898543,2.808444
93.50384,153.3564,0.6467005,0.9896896,2.814903
93.55511,142.5488,0.71424,0.9898543,2.814903
93.60458,131.8683,0.7615166,0.9898543,2.814903
93.65458,126.0195,0.7682725,0.9896896,2.821362
93.70432,130.3425,0.8560698,0.9898543,2.821362
93.75403,133.3941,0.9843928,0.9900191,2.821362
93.8047,126.4009,0.9843928,0.9898543,2.821362
93.85456,118.1362,1.004656,0.9898543,2.827821
93.90447,115.0847,1.099209,0.9898543,2.827821
93.95381,112.2874,1.166748,0.9900191,2.834281
94.00457,111.3974,1.146485,0.9898543,2.834281
94.05473,110.3802,1.173504,0.9898543,2.84074
94.10469,109.1087,1.220781,0.9898543,2.834281
94.15444,107.4557,1.315334,0.9898543,2.84074
94.20411,103.2598,1.241044,0.9898543,2.84074
94.2541,102.6241,1.187011,0.9898543,2.84074
94.30495,105.1671,1.180255,0.9898543,2.847199
94.35571,142.0402,1.180255,0.9898543,2.847199
94.40423,154.5007,1.119472,0.9898543,2.847199
94.45423,143.3117,1.092458,0.9898543,2.847199
94.50423,139.2429,1.045181,0.9898543,2.847199
94.55542,122.8407,1.004656,0.9898543,2.847199
94.60566,125.8923,0.957379,0.9898543,2.847199
94.65431,127.9267,0.8425629,0.9898543,2.847199
94.70423,130.9782,0.8020422,0.9898543,2.853658
94.75423,118.3905,0.7952863,0.9900191,2.853658
94.80511,113.4317,0.6939771,0.9898543,2.853658
94.85493,109.1087,0.6264377,0.9898543,2.853658
94.9047,107.9643,0.5656542,0.9900191,2.860117
94.95456,107.2015,0.5453913,0.9898543,2.853658
95.00395,106.82,0.4508381,0.9900191,2.860117
95.05486,106.0571,0.3427779,0.9898543,2.853658
95.10542,103.387,0.2279619,0.9900191,2.860117
95.15393,100.2083,0.1469155,0.9898543,2.860117
95.20393,134.9198,0.01183661,0.9898543,2.860117
95.25408,157.0437,-0.08271664,0.9898543,2.860117
95.30535,154.2464,-0.1502561,0.9896896,2.860117
95.35478,143.9474,-0.1975327,0.9898543,2.860117
95.40448,138.48,-0.2515653,0.9898543,2.860117
95.45435,124.3665,-0.3055928,0.9898543,2.866576
95.5046,123.6036,-0.3190998,0.9898543,2.866576
95.55574,129.5796,-0.3528695,0.9898543,2.866576
95.60545,128.6896,-0.4001461,0.9900191,2.866576
95.65418,120.0435,-0.4879484,0.9898543,2.860117
95.70393,114.7032,-0.5217181,0.9898543,2.860117
95.75381,109.6173,-0.535225,0.9900191,2.866576
95.80476,108.3458,-0.5960085,0.9898543,2.866576
95.8548,107.2015,-0.663548,0.9898543,2.866576
95.90482,105.5485,-0.7108246,0.9896896,2.860117
95.95483,104.7856,-0.7040736,0.9898543,2.866576
96.00443,103.0055,-0.8526595,0.9898543,2.866576
96.05507,99.06393,-0.9607196,0.9898543,2.866576
96.10507,98.80965,-1.156582,0.9900191,2.866576
96.15406,144.0746,-1.203859,0.9900191,2.866576
96.20416,156.7894,-1.291661,0.9898543,2.866576
96.25472,147.889,-1.359195,0.9898543,2.866576
96.30491,142.1673,-1.433491,0.9898543,2.866576
96.35482,129.9611,-1.419984,0.9898543,2.866576
96.40439,124.748,-1.426735,0.9898543,2.866576
96.45386,124.748,-1.406477,0.9900191,2.866576
96.50381,129.1982,-1.379458,0.9898543,2.866576
96.55573,122.4593,-1.365951,0.9898543,2.866576
96.60552,115.8476,-1.359195,0.9898543,2.860117
96.65415,111.0159,-1.359195,0.999737,2.860117
96.70382,109.2358,-1.332182,0.999737,2.866576
96.75371,107.9643,-1.271398,0.999737,2.866576
96.80484,105.93,-1.244384,0.9999016,2.866576
96.85586,104.4042,-1.237628,0.9999016,2.866576
96.90431,103.1327,-1.183596,0.9999016,2.866576
96.95459,101.7341,-1.217366,0.9999016,2.866576
97.00459,99.57254,-1.305168,0.999737,2.866576
97.05586,97.28386,-1.433491,0.9999016,2.866576
97.10471,101.8612,-1.494274,0.9999016,2.866576
97.15457,157.1709,-1.46726,0.9999016,2.860117
97.20458,152.7207,-1.426735,0.9999016,2.866576
97.25435,141.2773,-1.379458,0.999737,2.866576
97.30559,137.7171,-1.251135,0.999737,2.866576
97.35559,124.4937,-1.055273,0.999737,2.866576
97.40427,123.9851,-0.791871,0.9999016,2.866576
97.45486,125.638,-0.6095204,0.9999016,2.866576
97.50428,128.4353,-0.4271649,0.9999016,2.860117
97.55531,115.339,-0.2380534,0.9999016,2.866576
97.60503,111.0159,-0.05570285,1.000066,2.866576
97.65485,108.4729,0.03885538,0.9999016,2.866576
97.70492,105.93,0.1401596,0.999737,2.866576
97.75485,105.1671,0.3090082,0.9999016,2.866576
97.80487,104.4042,0.3900546,0.9999016,2.866576
97.85485,102.6241,0.4846078,0.999737,2.866576
97.90482,100.2083,0.5589032,0.9999016,2.866576
97.95492,98.30104,0.6399496,0.999737,2.866576
98.00488,95.63092,0.6534564,0.999737,2.860117
98.05494,98.42819,0.6872262,0.9999016,2.866576
98.10484,127.6724,0.7547656,0.999737,2.860117
98.15471,153.3564,0.8493189,0.9999016,2.866576
98.20471,142.0402,0.8425629,0.999737,2.860117
98.25389,135.8099,0.8560698,0.9999016,2.860117
98.30501,122.8407,0.9033464,0.999737,2.860117
98.3548,120.0435,0.9979047,0.9999016,2.860117
98.40471,124.3665,1.011412,0.9999016,2.860117
98.45454,126.7823,1.031674,0.999737,2.866576
98.50418,115.4661,1.065439,0.999737,2.860117
98.55495,112.1602,1.146485,0.9999016,2.860117
98.60493,106.6929,1.153241,0.999737,2.860117
98.65475,105.0399,1.105965,0.999737,2.860117
98.70393,103.6413,1.119472,0.9999016,2.860117
98.75479,103.0055,1.159997,0.9999016,2.860117
98.80583,102.2427,1.099209,0.999737,2.860117
98.85586,100.2083,1.038425,0.9999016,2.860117
98.90441,97.28386,0.957379,0.999737,2.860117
98.95441,95.24948,0.9236093,1.000066,2.860117
99.00442,99.19109,0.7750235,0.9999016,2.860117
99.05505,117.6276,0.6804702,0.9999016,2.860117
99.10493,153.4836,0.6061798,0.999737,2.860117
99.15479,136.0642,0.5318844,0.9999016,2.853658
99.20427,130.2153,0.4238243,1.000066,2.853658
99.25466,118.1362,0.2955013,0.999737,2.860117
99.30553,115.4661,0.2549756,0.9999016,2.853658
99.35541,116.1019,0.2279619,0.9999016,2.853658
99.40401,123.6036,0.1536715,0.999737,2.853658
99.45464,112.1602,0.07262511,0.999737,2.853658
99.50465,112.1602,0.03209944,0.999737,2.853658
99.55541,105.5485,0.01183661,0.9999016,2.853658
99.60506,101.8612,-0.008426228,0.9999016,2.853658
99.65453,101.0983,-0.09622353,0.9898543,2.847199
99.70416,101.0983,-0.1164864,0.9896896,2.853658
99.75385,100.7169,-0.09622353,0.9898543,2.847199
99.80579,100.7169,-0.1772699,0.9898543,2.847199
99.85561,97.66531,-0.2718231,0.9898543,2.853658
99.90402,94.99519,-0.3798882,0.9898543,2.847199
99.95406,102.1155,-0.4474277,0.9898543,2.847199
100.004,142.8031,-0.5014552,0.9900191,2.847199
100.0554,150.3048,-0.5487319,0.9898543,2.847199
100.1051,141.6587,-0.5689947,0.9900191,2.847199
100.1545,132.7583,-0.5622388,0.9898543,2.847199
100.204,121.315,-0.6230273,0.9898543,2.84074
100.255,118.772,-0.6297783,0.9896896,2.847199
100.3056,120.0435,-0.6432852,0.9896896,2.847199
100.3557,123.7308,-0.6365342,0.9898543,2.847199
100.404,114.1946,-0.6432852,0.9898543,2.84074
100.4541,109.8716,-0.6770549,0.9898543,2.84074
100.5049,106.0571,-0.6973177,0.9898543,2.84074
100.5559,103.5141,-0.6838108,0.9898543,2.847199
100.6053,103.0055,-0.6905667,0.9898543,2.84074
100.6539,103.0055,-0.7310874,0.9896896,2.84074
100.7048,100.7169,-0.7175805,0.9900191,2.84074
100.7548,99.44539,-0.7581012,0.9900191,2.84074
100.8061,96.64812,-0.8796732,0.9898543,2.84074
100.8561,96.01237,-1.014752,0.9898543,2.84074
100.9045,125.1294,-1.095798,0.9898543,2.84074
100.9546,154.8822,-1.109305,0.9898543,2.847199
101.0043,151.0677,-1.156582,0.9896896,2.84074
101.0554,138.3529,-1.176845,0.9898543,2.847199
101.1058,135.5556,-1.156582,0.9898543,2.847199
101.1543,120.8064,-1.136319,0.9898543,2.847199
101.2043,120.9335,-1.102549,0.9898543,2.847199
101.2544,123.2222,-1.095798,0.9898543,2.853658
101.3054,126.7823,-1.06878,0.9898543,2.853658
101.3559,115.0847,-1.021503,0.9898543,2.860117
101.4045,111.0159,-0.9674755,0.9898543,2.860117
101.4545,105.93,-0.8931801,0.9898543,2.860117
101.5041,105.1671,-0.8053828,0.9898543,2.866576
101.555,104.0227,-0.7108246,0.9898543,2.866576
101.6058,103.387,-0.5622388,0.9898543,2.873036
101.654,102.6241,-0.4744415,0.9798071,2.873036
101.7042,101.8612,-0.406902,0.9798071,2.873036
101.7551,97.41101,-0.28533,0.9798071,2.879495
101.8058,103.7684,-0.2110396,0.9799718,2.885954
101.8559,140.8958,-0.08271664,0.9799718,2.885954
101.9047,152.7207,0.03885538,0.9796425,2.892413
101.9548,143.3117,0.1739293,0.9799718,2.898872
102.0045,136.1913,0.2684825,0.9798071,2.898872
102.0553,124.3665,0.3495289,0.9798071,2.905332
102.106,121.5692,0.4440871,0.9798071,2.905332
102.1544,122.7136,0.6129308,0.9798071,2.905332
102.2042,129.1982,0.6467005,0.9799718,2.911791
102.2541,117.7548,0.6804702,0.9798071,2.911791
102.3053,112.1602,0.7480097,0.9798071,2.91825
102.3561,108.8544,0.829056,0.9799718,2.924709
102.4049,107.4557,0.8898395,0.9798071,2.924709
102.4544,107.3286,0.9168583,0.9798071,2.924709
102.5047,106.4386,0.9776418,0.9798071,2.931168
102.5556,104.6585,1.031674,0.9798071,2.937627
102.6054,101.3526,1.058688,0.9798071,2.937627
102.6552,100.7169,1.011412,0.9798071,2.937627
102.7048,112.2874,0.9641349,0.9798071,2.944087
102.7544,141.1501,1.051932,0.9798071,2.944087
102.8054,153.9921,1.011412,0.9798071,2.944087
102.8554,139.1158,0.9843928,0.9799718,2.950546
102.9044,134.2841,0.957379,0.9798071,2.950546
102.9544,122.8407,0.9911487,0.9798071,2.950546
103.004,122.0779,0.9033464,0.9798071,2.950546
103.0554,122.9679,0.8155491,0.9798071,2.950546
103.1057,128.6896,0.7277468,0.9798071,2.957005
103.1541,116.4833,0.7345028,0.9799718,2.950546
103.2041,111.906,0.6331936,0.9798071,2.957005
103.2552,108.7272,0.5521473,0.9798071,2.957005
103.306,106.3114,0.4846078,0.9798071,2.957005
103.356,105.5485,0.4373312,0.9798071,2.957005
103.4048,104.7856,0.3697917,0.9799718,2.963464
103.4549,104.4042,0.2482247,0.9798071,2.963464
103.5042,103.387,0.1131458,0.9798071,2.963464
103.5553,100.4626,-0.04894691,0.9798071,2.963464
103.6053,119.1534,-0.157007,0.9799718,2.963464
103.654,155.0093,-0.2718231,0.9799718,2.963464
103.705,152.8478,-0.3461185,0.9798071,2.969923
103.7542,140.8958,-0.406902,0.9798071,2.963464
103.8055,131.4868,-0.5082112,0.9798071,2.963464
103.8554,123.095,-0.5825016,0.9798071,2.963464
103.9053,123.3493,-0.650041,0.9798071,2.969923
103.955,125.8923,-0.6838108,0.9799718,2.969923
104.0049,127.6724,-0.7445943,0.9799718,2.969923
104.0563,114.4489,-0.8121338,0.9798071,2.969923
104.1052,110.1259,-0.8661664,0.9798071,2.969923
104.1548,107.9643,-0.8594104,0.9798071,2.969923
104.2049,106.4386,-0.8729173,0.9799718,2.969923
104.2548,104.9128,-0.906687,0.9798071,2.969923
104.306,104.5313,-0.8661664,0.9798071,2.969923
104.3559,103.0055,-0.9269499,0.9798071,2.969923
104.4046,101.4798,-1.014752,0.9798071,2.969923
104.4545,99.82683,-1.116056,0.9798071,2.969923
104.5044,99.69969,-1.163333,0.9798071,2.969923
104.5553,131.9954,-1.163333,0.9798071,2.969923
104.6054,150.1777,-1.197103,0.9799718,2.969923
104.6553,141.913,-1.291661,0.9798071,2.969923
104.7041,134.9198,-1.311919,0.9798071,2.963464
104.7548,125.1294,-1.298412,0.9798071,2.969923
104.8059,123.9851,-1.278149,0.9798071,2.969923
104.8558,128.8167,-1.271398,0.9798071,2.969923
104.9045,130.0882,-1.244384,0.9798071,2.969923
104.955,116.229,-1.197103,0.9798071,2.963464
105.0044,110.6345,-1.183596,0.9798071,2.969923
105.0556,106.6929,-1.149826,0.9798071,2.963464
105.1056,105.5485,-1.122812,0.9798071,2.969923
105.1552,104.7856,-1.095798,0.9799718,2.963464
105.205,104.0227,-1.028259,0.9796425,2.969923
105.2551,102.8784,-1.021503,0.9798071,2.969923
105.3051,100.5897,-1.06878,0.9798071,2.969923
105.3558,100.2083,-1.149826,0.9798071,2.969923
105.4046,106.0571,-1.244384,0.9798071,2.969923
105.4547,143.566,-1.305168,0.9796425,2.963464
105.5046,151.8306,-1.311919,0.9798071,2.969923
105.5554,144.3289,-1.291661,0.9799718,2.969923
105.6053,132.2497,-1.251135,0.9798071,2.969923
105.6551,123.4765,-1.257891,0.9798071,2.969923
105.705,123.4765,-1.224121,0.9798071,2.969923
105.7547,124.6208,-1.170089,0.9798071,2.963464
105.8056,123.3493,-1.156582,0.9798071,2.969923
105.8551,116.8647,-1.129568,0.9796425,2.963464
105.9048,110.253,-1.082287,0.9798071,2.963464
105.9552,108.4729,-1.028259,0.9798071,2.963464
106.0054,105.5485,-1.007996,0.9799718,2.963464
106.0556,104.4042,-0.9877334,0.9799718,2.963464
106.1052,103.7684,-0.913443,0.9798071,2.963464
106.1541,103.0055,-0.8594104,0.9798071,2.963464
106.2049,101.2255,-0.9539636,0.9798071,2.963464
106.2548,98.9368,-1.041766,0.9798071,2.963464
106.3059,125.1294,-1.143075,0.9798071,2.963464
106.3554,152.4664,-1.163333,0.9799718,2.963464
106.4046,150.9406,-1.170089,0.9798071,2.963464
106.4542,138.6072,-1.136319,0.9798071,2.957005
106.5042,137.59,-1.149826,0.9798071,2.957005
106.5562,121.8235,-1.163333,0.9798071,2.957005
106.6063,121.315,-1.129568,0.9798071,2.963464
106.655,122.8407,-1.143075,0.9799718,2.957005
106.7044,127.5452,-1.129568,0.9796425,2.957005
106.7552,113.3046,-1.075536,0.9798071,2.957005
106.8062,109.7444,-1.028259,0.9798071,2.957005
106.8557,106.5657,-0.9944893,0.9799718,2.957005
106.9048,105.5485,-0.9404567,0.9798071,2.957005
106.9547,104.5313,-0.8931801,0.9799718,2.950546
107.0047,103.1327,-0.8188897,0.9898543,2.950546
107.056,101.6069,-0.8323966,0.9896896,2.957005
107.1059,98.6825,-0.8661664,0.9898543,2.950546
107.1545,99.19109,-0.8931801,0.9896896,2.950546
107.2051,106.82,-0.9337058,0.9898543,2.950546
107.2547,150.3048,-0.9539636,0.9898543,2.944087
107.3055,145.8546,-0.9809824,0.9896896,2.950546
107.3555,138.7343,-1.00124,0.9898543,2.950546
107.4053,128.181,-1.014752,0.9898543,2.950546
107.4552,119.5349,-0.9944893,0.9896896,2.944087
107.505,119.7892,-0.9809824,0.9898543,2.950546
107.556,124.4937,-0.9809824,0.9898543,2.944087
107.6062,122.7136,-0.9742265,0.9898543,2.944087
107.6547,112.9231,-0.9674755,0.9898543,2.944087
107.7046,110.253,-0.9269499,0.9898543,2.944087
107.7545,105.4214,-0.9269499,0.9898543,2.944087
107.8064,104.1499,-0.9337058,0.9898543,2.937627
107.8562,103.0055,-0.906687,0.9896896,2.937627
107.9047,102.7513,-1.028259,0.9898543,2.937627
107.9543,100.9712,-1.102549,0.9896896,2.937627
108.0051,100.4626,-1.230872,0.9798071,2.937627
108.0553,120.8064,-1.278149,0.9796425,2.937627
108.1053,148.3976,-1.291661,0.9798071,2.937627
108.1547,144.5831,-1.257891,0.9798071,2.931168
108.2048,137.8443,-1.210615,0.9798071,2.937627
108.2548,127.0366,-1.163333,0.9798071,2.937627
108.3057,118.6448,-1.041766,0.9798071,2.931168
108.3558,118.8991,-0.8594104,0.9798071,2.931168
108.4053,123.9851,-0.7243315,0.9796425,2.931168
108.455,116.8647,-0.5622388,0.9798071,2.931168
108.505,114.4489,-0.3528695,0.9796425,2.931168
108.5563,107.2015,-0.1367492,0.9798071,2.924709
108.6057,105.0399,0.005085652,0.9798071,2.931168
108.6555,102.8784,0.1266527,0.9898543,2.924709
108.7052,102.2427,0.2752385,0.9896896,2.924709
108.7552,101.8612,0.3765477,0.9898543,2.924709
108.8065,101.4798,0.457594,0.9896896,2.924709
108.8554,111.3974,0.4846078,0.9896896,2.91825
108.9052,148.7791,0.585917,0.9898543,2.924709
108.9552,148.9062,0.6804702,0.9896896,2.91825
109.0054,140.6415,0.707484,0.9898543,2.91825
109.0556,135.047,0.8087932,0.9898543,2.91825
109.1053,119.2806,0.8695817,0.9896896,2.91825
109.1553,118.8991,0.9641349,0.9896896,2.911791
109.2053,120.4249,0.9911487,0.9896896,2.911791
109.2554,125.8923,1.018162,0.9898543,2.911791
109.3065,111.7788,1.031674,0.9896896,2.91825
109.3562,109.1087,1.105965,0.9898543,2.911791
109.4052,105.6757,1.119472,0.9898543,2.911791
109.4547,105.4214,1.119472,0.9896896,2.911791
109.5046,104.9128,1.119472,0.9896896,2.911791
109.5557,103.2598,1.119472,0.9896896,2.911791
109.6053,101.3526,1.058688,0.9898543,2.905332
109.6554,98.55534,0.9438721,0.9798071,2.905332
109.7046,116.9919,0.8965955,0.9799718,2.905332
109.7543,149.2876,0.8965955,0.9798071,2.905332
109.8059,147.2533,0.7682725,0.9799718,2.905332
109.8562,135.937,0.6467005,0.9798071,2.898872
109.9049,130.724,0.5453913,0.9798071,2.898872
109.9547,115.2118,0.4913637,0.9796425,2.898872
110.0043,115.5933,0.3832986,0.9798071,2.905332
110.0554,122.7136,0.2617316,0.9799718,2.898872
110.1064,123.6036,0.1199017,0.9798071,2.898872
110.1553,110.6345,0.07262511,0.9798071,2.898872
110.2054,105.1671,-0.02193312,0.9798071,2.898872
110.2549,102.8784,-0.1299933,0.9798071,2.892413
110.3055,101.0983,-0.2245465,0.9798071,2.892413
110.356,101.2255,-0.2988419,0.9798071,2.885954
110.4047,100.844,-0.4339158,0.9798071,2.892413
110.4552,99.95398,-0.6365342,0.9798071,2.892413
110.5051,99.44539,-0.7513502,0.9798071,2.892413
110.5561,97.79247,-0.9201939,0.9799718,2.885954
110.6058,151.322,-1.021503,0.9798071,2.885954
110.6554,148.3976,-1.122812,0.9799718,2.885954
110.7055,140.8958,-1.264642,0.9796425,2.885954
110.7555,134.6656,-1.318675,0.9799718,2.885954
110.8063,119.9163,-1.325431,0.9798071,2.885954
110.8555,119.7892,-1.305168,0.9798071,2.879495
110.9055,120.8064,-1.278149,0.9798071,2.879495
110.955,118.3905,-1.257891,0.9798071,2.879495
111.005,113.686,-1.237628,0.9798071,2.879495
111.056,107.8372,-1.203859,0.9798071,2.879495
111.106,104.4042,-1.170089,0.9798071,2.879495
111.1545,102.7513,-1.156582,0.9798071,2.879495
111.2055,101.4798,-1.163333,0.9798071,2.879495
111.2548,100.7169,-1.109305,0.9798071,2.879495
111.306,99.57254,-1.163333,0.9898543,2.879495
111.356,97.15671,-1.190352,0.9896896,2.873036
111.4048,96.52097,-1.291661,0.9896896,2.873036
111.4547,136.1913,-1.325431,0.9896896,2.873036
111.505,149.0334,-1.332182,0.9896896,2.873036
111.5557,149.2876,-1.305168,0.9898543,2.873036
111.6065,135.6828,-1.284905,0.9898543,2.873036
111.6556,121.5692,-1.305168,0.9898543,2.873036
111.7053,118.5177,-1.291661,0.9898543,2.873036
111.7553,118.1362,-1.237628,0.9898543,2.866576
111.8065,121.6964,-1.217366,0.9900191,2.873036
111.856,114.8304,-1.210615,0.9896896,2.873036
111.9047,108.9815,-1.197103,0.9896896,2.873036
111.9548,104.5313,-1.143075,0.9896896,2.866576
112.0045,101.8612,-1.075536,0.9898543,2.866576
112.0563,100.7169,-1.007996,0.9898543,2.866576
112.1063,100.4626,-0.8864292,0.9898543,2.866576
112.1546,99.69969,-0.6770549,0.9896896,2.866576
112.2055,98.1739,-0.6027644,0.9896896,2.866576
112.2546,95.50377,-0.5082112,0.9898543,2.866576
112.3064,101.0983,-0.4271649,0.9896896,2.873036
112.356,120.1706,-0.2718231,0.9896896,2.866576
112.4045,145.6003,-0.1097304,0.9896896,2.860117
112.4555,138.7343,-0.001670288,0.9898543,2.866576
112.5055,135.937,0.1401596,0.9898543,2.866576
112.5556,116.7376,0.2819944,0.9898543,2.866576
112.6057,116.229,0.4103174,0.9900191,2.866576
112.6554,116.4833,0.5048707,0.9898543,2.860117
112.7055,121.315,0.6129308,0.9898543,2.866576
112.7555,110.7616,0.7345028,0.9896896,2.860117
112.8065,108.3458,0.8493189,0.9898543,2.860117
112.8564,102.6241,0.8763326,0.9896896,2.860117
112.9046,101.9884,0.9236093,0.9898543,2.860117
112.9545,99.19109,1.024918,0.9896896,2.860117
113.0045,97.79247,1.051932,0.9896896,2.860117
113.0546,97.53816,1.072195,0.9900191,2.860117
113.1045,97.41101,1.072195,0.9896896,2.860117
113.1546,94.86804,1.119472,0.9898543,2.860117
113.2058,98.04675,1.099209,0.9896896,2.853658
113.2554,134.4113,1.105965,0.9896896,2.860117
113.305,142.4216,1.112721,0.9898543,2.860117
113.3546,130.2153,1.166748,0.9896896,2.853658
113.4048,120.1706,1.146485,0.9898543,2.860117
113.4558,110.6345,1.065439,0.9896896,2.860117
113.5055,110.253,1.058688,0.9898543,2.853658
113.5553,113.8132,1.038425,0.9896896,2.853658
113.6057,118.8991,1.004656,0.9898543,2.853658
113.6556,107.3286,0.9033464,0.9898543,2.853658
113.7065,102.6241,0.829056,0.9896896,2.853658
113.755,99.57254,0.835812,0.9896896,2.853658
113.8046,98.42819,0.7615166,0.9896896,2.853658
113.8556,97.66531,0.6872262,0.9896896,2.853658
113.905,96.13953,0.6061798,0.9898543,2.853658
113.9558,95.88522,0.5183775,0.9898543,2.853658
114.0055,94.99519,0.3697917,0.9999016,2.853658
114.0556,92.7065,0.1941921,0.999737,2.853658
114.1047,123.7308,0.07937606,0.999737,2.853658
114.1556,149.7962,-0.01517718,0.9999016,2.853658
114.2062,145.346,-0.1502561,0.9999016,2.847199
114.2551,131.2325,-0.2650722,0.999737,2.847199
114.3056,119.0263,-0.3326116,0.999737,2.847199
114.3548,110.5073,-0.3663764,0.999737,2.847199
114.4047,110.7616,-0.4339158,0.999737,2.847199
114.4558,114.1946,-0.5014552,0.9999016,2.847199
114.5052,117.3734,-0.5689947,0.9995722,2.847199
114.5551,107.71,-0.6230273,0.9999016,2.847199
114.6049,100.9712,-0.6770549,0.999737,2.847199
114.6548,99.31824,-0.7243315,0.9999016,2.847199
114.7065,96.52097,-0.7783641,0.9995722,2.847199
114.7551,95.75809,-0.8053828,0.999737,2.84074
114.8049,96.13953,-0.8121338,0.999737,2.84074
114.8546,95.75809,-0.9539636,0.999737,2.847199
114.9051,93.85085,-1.021503,0.9999016,2.847199
114.9557,91.43503,-1.109305,0.9999016,2.84074
115.0057,132.3769,-1.170089,0.9999016,2.84074
115.0547,149.5419,-1.197103,0.999737,2.84074
115.1048,143.1845,-1.217366,0.999737,2.84074
115.1546,131.1054,-1.298412,0.999737,2.84074
115.2056,121.8235,-1.305168,0.999737,2.834281
115.2548,112.1602,-1.291661,0.9999016,2.84074
115.3057,112.5417,-1.244384,0.999737,2.834281
115.3551,115.339,-1.217366,0.999737,2.834281
115.4051,109.9987,-1.203859,0.999737,2.834281
115.4561,106.0571,-1.170089,0.999737,2.84074
115.5053,102.7513,-1.163333,0.999737,2.834281
115.5553,99.57254,-1.116056,0.9995722,2.834281
115.6049,96.64812,-1.089043,0.999737,2.834281
115.6547,96.13953,-1.095798,0.9898543,2.834281
115.7065,96.01237,-1.055273,0.9896896,2.834281
115.7552,96.26666,-1.075536,0.9896896,2.834281
115.8052,95.37663,-1.122812,0.9896896,2.834281
115.8547,93.46941,-1.203859,0.9898543,2.834281
115.9056,126.9095,-1.257891,0.9898543,2.834281
115.9562,150.0505,-1.251135,0.9896896,2.827821
116.0049,144.9646,-1.217366,0.9898543,2.834281
116.0552,131.8683,-1.129568,0.9898543,2.834281
116.1049,122.5864,-1.021503,0.9896896,2.827821
116.1548,113.0503,-0.8323966,0.9898543,2.827821
116.206,112.4145,-0.6365342,0.9898543,2.827821
116.2547,114.5761,-0.4339158,0.9898543,2.827821
116.3047,114.8304,-0.2583162,0.9898543,2.827821
116.3547,107.0743,-0.0759607,0.9898543,2.827821
116.4057,101.2255,0.086132,0.9898543,2.827821
116.4564,98.6825,0.2617316,0.9896896,2.827821
116.5055,98.6825,0.3765477,0.9898543,2.827821
116.5556,97.02956,0.5318844,0.9896896,2.827821
116.6052,95.50377,0.6872262,0.9898543,2.827821
116.6553,95.37663,0.71424,0.999737,2.827821
116.7062,93.85085,0.7480097,0.999737,2.827821
116.755,91.81647,0.829056,0.9999016,2.821362
116.8048,122.3321,0.8628258,0.999737,2.821362
116.8547,149.0334,0.8898395,0.999737,2.821362
116.9054,144.456,0.9033464,0.999737,2.827821
116.956,131.2325,0.9641349,0.999737,2.827821
117.0055,118.6448,0.9843928,0.9999016,2.827821
117.0554,108.8544,1.011412,0.999737,2.821362
117.105,114.1946,1.024918,0.999737,2.821362
117.1552,117.2462,1.092458,0.999737,2.821362
117.2064,112.4145,1.159997,0.999737,2.821362
117.2551,107.71,1.126228,0.999737,2.821362
117.3047,103.387,1.153241,0.9898543,2.821362
117.3555,99.69969,1.207274,0.9898543,2.821362
117.405,97.66531,1.187011,0.9898543,2.821362
117.4568,98.04675,1.187011,0.9896896,2.821362
117.5051,97.9196,1.139735,0.9896896,2.821362
117.5558,97.41101,1.099209,0.9896896,2.821362
117.6057,95.12233,1.045181,0.9898543,2.821362
117.6551,96.90242,0.9641349,0.9898543,2.821362
117.7061,138.7343,0.8425629,0.9896896,2.821362
117.7555,147.3804,0.835812,0.9896896,2.821362
117.8052,135.3013,0.7277468,0.9898543,2.821362
117.8551,128.0538,0.6264377,0.9896896,2.814903
117.9047,113.9403,0.5589032,0.9898543,2.814903
117.9557,111.906,0.4981147,0.9896896,2.821362
118.0056,116.9919,0.3832986,0.9898543,2.821362
118.0553,120.6792,0.2955013,0.9898543,2.814903
118.1057,109.9987,0.1941921,0.9896896,2.814903
118.1552,105.8028,0.1536715,0.9896896,2.814903
118.2061,103.0055,0.09963889,0.9898543,2.821362
118.2547,99.57254,0.01859255,0.9898543,2.814903
118.3047,99.57254,-0.04894691,0.9896896,2.814903
118.3551,99.57254,-0.09622353,0.9896896,2.814903
118.4058,98.42819,-0.2718231,0.9898543,2.814903
118.4566,96.90242,-0.406902,0.9898543,2.814903
118.5058,96.64812,-0.5892575,0.9896896,2.814903
118.5548,112.6688,-0.7108246,0.9898543,2.814903
118.6057,149.9234,-0.8594104,0.9896896,2.814903
118.6557,141.1501,-1.062029,0.9898543,2.808444
118.7067,133.3941,-1.170089,0.9896896,2.814903
118.7549,121.8235,-1.237628,0.9896896,2.814903
118.8058,119.4077,-1.257891,0.9896896,2.814903
118.8558,119.9163,-1.257891,0.9898543,2.814903
118.9055,124.4937,-1.264642,0.9898543,2.814903
118.9562,114.9575,-1.251135,0.9898543,2.814903
119.005,111.1431,-1.237628,0.9898543,2.814903
119.0552,107.0743,-1.224121,0.9898543,2.814903
119.1055,104.4042,-1.224121,0.9896896,2.814903
119.1549,103.6413,-1.217366,0.9898543,2.814903
119.206,101.9884,-1.156582,0.9898543,2.814903
119.2548,100.7169,-1.257891,0.9896896,2.821362
119.306,98.80965,-1.325431,0.999737,2.821362
119.3555,99.19109,-1.440242,0.999737,2.821362
119.4051,141.913,-1.487523,0.9999016,2.821362
119.4559,149.7962,-1.480767,0.999737,2.827821
119.5053,148.0162,-1.494274,0.999737,2.827821
119.5548,138.3529,-1.480767,0.999737,2.834281
119.6048,124.2394,-1.460505,0.999737,2.834281
119.6548,122.5864,-1.460505,0.999737,2.834281
119.7058,122.0779,-1.413228,0.999737,2.84074
119.7552,125.7652,-1.386214,0.9999016,2.847199
119.805,116.7376,-1.372707,0.999737,2.84074
119.855,111.906,-1.338938,0.9999016,2.847199
119.9049,107.5829,-1.291661,0.999737,2.853658
119.9569,105.1671,-1.230872,0.999737,2.853658
120.0058,104.1499,-1.183596,0.9896896,2.860117
120.0548,103.0055,-1.082287,0.9896896,2.860117
120.1054,102.3698,-0.9742265,0.9898543,2.866576
120.155,100.7169,-0.8729173,0.9900191,2.866576
120.2069,99.19109,-0.7378433,0.9898543,2.873036
120.2558,102.8784,-0.6162713,0.9896896,2.873036
120.3057,150.0505,-0.4406717,0.9896896,2.879495
120.3554,146.8718,-0.2313024,0.9896896,2.885954
120.4056,142.0402,-0.08271664,0.9896896,2.885954
120.4562,134.2841,0.09963889,0.9898543,2.892413
120.5056,123.3493,0.2279619,0.9896896,2.892413
120.5555,122.4593,0.4103174,0.9898543,2.898872
120.6054,125.638,0.5453913,0.9896896,2.905332
120.655,122.9679,0.6264377,0.9898543,2.911791
120.7071,115.5933,0.7345028,0.9898543,2.911791
120.756,110.5073,0.835812,0.9896896,2.911791
120.8061,108.2186,0.9371161,0.9896896,2.91825
120.8549,106.0571,0.9641349,0.9898543,2.91825
120.9059,106.4386,0.9911487,0.9896896,2.924709
120.9569,104.5313,1.045181,0.9896896,2.924709
121.0055,103.8956,1.072195,0.9898543,2.924709
121.0558,99.95398,1.072195,0.9896896,2.931168
121.106,103.0055,1.045181,0.9896896,2.931168
121.156,144.0746,1.112721,0.9898543,2.937627
121.2066,148.0162,1.146485,0.9896896,2.937627
121.2553,143.3117,1.126228,0.9898543,2.937627
121.3055,136.9542,1.092458,0.9898543,2.944087
121.3554,123.095,1.065439,0.9898543,2.944087
121.406,120.9335,1.078951,0.9898543,2.950546
121.4559,123.2222,1.004656,0.9896896,2.950546
121.506,127.2909,0.9168583,0.9898543,2.957005
121.5553,116.7376,0.9033464,0.9898543,2.957005
121.6057,112.4145,0.8830886,0.9896896,2.957005
121.6554,107.71,0.8020422,0.9898543,2.957005
121.7062,106.3114,0.7277468,0.9896896,2.957005
121.7559,104.9128,0.7007331,0.9896896,2.963464
121.8052,103.7684,0.6467005,0.9900191,2.957005
121.8558,102.7513,0.5318844,0.9900191,2.963464
121.9057,99.57254,0.3765477,0.9896896,2.963464
121.9564,104.1499,0.2482247,0.9896896,2.963464
122.005,143.9474,0.1739293,0.9896896,2.963464
122.055,148.6519,0.086132,0.9898543,2.969923
122.1059,146.8718,-0.01517718,0.9896896,2.969923
122.1554,140.3873,-0.09622353,0.9898543,2.969923
122.2063,129.7068,-0.1367492,0.9898543,2.969923
122.256,122.205,-0.2313024,0.9896896,2.969923
122.306,125.638,-0.3055928,0.9898543,2.969923
122.3557,128.5624,-0.3731323,0.9896896,2.976382
122.4049,116.8647,-0.4609346,0.9898543,2.976382
122.456,115.2118,-0.5419809,0.9898543,2.976382
122.5059,113.0503,-0.6230273,0.9896896,2.969923
122.5558,106.5657,-0.6703039,0.9898543,2.976382
122.6059,104.7856,-0.7581012,0.9898543,2.976382
122.6557,104.1499,-0.8526595,0.9896896,2.976382
122.7069,102.6241,-0.8594104,0.9896896,2.976382
122.7557,100.4626,-1.007996,0.9898543,2.976382
122.8055,98.42819,-1.082287,0.9898543,2.969923
122.8554,101.8612,-1.190352,0.9900191,2.976382
122.9054,137.59,-1.237628,0.9898543,2.976382
122.9561,148.0162,-1.271398,0.9898543,2.976382
123.0059,145.346,-1.284905,0.9898543,2.976382
123.0549,139.3701,-1.332182,0.9898543,2.976382
123.1049,128.8167,-1.332182,0.9898543,2.976382
123.1549,123.7308,-1.311919,0.9896896,2.976382
123.2065,122.8407,-1.271398,0.9898543,2.976382
123.2551,125.638,-1.271398,0.9898543,2.976382
123.3052,116.6105,-1.244384,0.9898543,2.976382
123.3552,113.0503,-1.230872,0.9898543,2.976382
123.4049,107.3286,-1.217366,0.9898543,2.976382
123.4562,106.0571,-1.156582,0.9898543,2.976382
123.5049,104.1499,-1.143075,0.9896896,2.969923
123.5559,102.7513,-1.136319,0.9898543,2.969923
123.6049,100.3354,-1.082287,0.9898543,2.976382
123.6559,99.57254,-1.122812,0.9796425,2.976382
123.7066,97.9196,-1.183596,0.9798071,2.976382
123.7555,96.13953,-1.278149,0.9798071,2.976382
123.8053,103.387,-1.365951,0.9798071,2.976382
123.8559,139.7515,-1.365951,0.9798071,2.969923
123.9059,146.8718,-1.332182,0.9798071,2.969923
123.9572,139.3701,-1.237628,0.9798071,2.969923
124.0052,133.9027,-1.062029,0.9796425,2.969923
124.0561,121.315,-0.8391476,0.9798071,2.969923
124.1062,121.4421,-0.6027644,0.9796425,2.969923
124.1562,123.6036,-0.3528695,0.9798071,2.969923
124.2061,121.315,-0.1232373,0.9799718,2.969923
124.2556,113.8132,-0.001670288,0.9798071,2.969923
124.3054,107.71,0.1199017,0.9798071,2.969923
124.3554,104.5313,0.2684825,0.9798071,2.969923
124.4053,104.1499,0.3968105,0.9798071,2.969923
124.4569,102.2427,0.5521473,0.9798071,2.969923
