t_sec,abp_mmHg,resp_arbunit,spo2_unitless,scon_muS
0,142.9302,-0.1649535,0.9799718,5.256467
0.05012191,125.2566,-0.1649535,0.9798071,5.262926
0.1008714,119.7892,-0.1587069,0.9798071,5.262926
0.1499027,114.3218,-0.1243481,0.9798071,5.269385
0.1994133,113.9403,-0.0931138,0.9796425,5.269385
0.2501181,113.9403,-0.07749607,0.9798071,5.269385
0.3007179,107.71,-0.1024837,0.9796425,5.275845
0.3509783,103.387,-0.1337192,0.9798071,5.275845
0.3991886,100.4626,-0.1524603,0.9798071,5.282304
0.4504391,99.31824,-0.2336711,0.9798071,5.282304
0.49927,97.41101,-0.3429941,0.9798071,5.275845
0.5510862,96.64812,-0.2055601,0.9798071,5.282304
0.600893,95.37663,-0.1430892,0.9798071,5.282304
0.6497365,91.56216,-0.3367475,0.9796425,5.282304
0.6994398,97.79247,-0.4273294,0.9796425,5.282304
0.7499076,141.1501,-0.4523171,0.9798071,5.288763
0.8010655,142.9302,-0.4460705,0.9798071,5.282304
0.8512436,129.5796,-0.5022936,0.9798071,5.288763
0.8996545,123.8579,-0.5741345,0.9796425,5.288763
0.9502416,115.339,-0.5647634,0.9799718,5.288763
0.9995919,114.9575,-0.5366524,0.9798071,5.288763
1.051026,114.5761,-0.5366524,0.9798071,5.288763
1.100634,115.0847,-0.5553935,0.9798071,5.288763
1.14984,108.3458,-0.5179114,0.9799718,5.295222
1.199534,104.1499,-0.4585637,0.9799718,5.295222
1.249341,101.9884,-0.3648585,0.9798071,5.295222
1.300449,100.3354,-0.09936044,0.9799718,5.295222
1.351016,99.69969,0.6971349,0.9799718,5.295222
1.399487,98.04675,0.972004,0.9798071,5.295222
1.449567,93.85085,0.9189042,0.9796425,5.301681
1.499515,95.88522,0.8658043,0.9798071,5.301681
1.550817,140.3873,0.8002112,0.9798071,5.301681
1.600883,145.7275,0.7158759,0.9798071,5.30814
1.649574,134.2841,0.5284654,0.9796425,5.301681
1.699653,131.614,0.3098194,0.9798071,5.30814
1.750143,121.1878,0.1286555,0.9798071,5.301681
1.801079,117.7548,-0.0837427,0.9796425,5.301681
1.850883,116.9919,-0.2524122,0.9798071,5.301681
1.899656,116.229,-0.3586119,0.9798071,5.30814
1.950388,110.8888,-0.4210816,0.9798071,5.30814
2.000411,105.5485,-0.5022936,0.9796425,5.30814
2.050654,102.3698,-0.5491457,0.9796425,5.30814
2.101377,101.9884,-0.5897511,0.9798071,5.314599
2.149984,101.9884,-0.5772578,0.9799718,5.314599
2.199898,99.44539,-0.6553454,0.9798071,5.30814
2.250066,95.37663,-0.8146449,0.9799718,5.314599
2.300163,105.8028,-0.8989791,0.9796425,5.314599
2.350584,145.346,-0.8677447,0.9798071,5.30814
2.39993,144.456,-0.8208915,0.9798071,5.30814
2.449972,134.157,-0.8146449,0.9796425,5.30814
2.500145,127.2909,-0.8177682,0.9796425,5.301681
2.551322,113.9403,-0.8614969,0.9798071,5.30814
2.601029,112.5417,-0.9926843,0.9798071,5.30814
2.649722,112.0331,-1.111378,0.9798071,5.30814
2.699719,110.7616,-1.155107,0.9798071,5.314599
2.750105,100.9712,-1.155107,0.9799718,5.321059
2.800254,96.52097,-1.192589,0.9798071,5.321059
2.850211,91.81647,-1.261307,0.9798071,5.327518
2.899815,88.7649,-1.323777,0.9796425,5.327518
2.949748,88.7649,-1.25506,0.9798071,5.327518
2.999651,89.5278,-1.245689,0.9798071,5.333977
3.051194,89.5278,-1.273801,0.9798071,5.340436
3.101117,93.46941,-1.273801,0.9798071,5.333977
3.149854,101.6069,-1.280048,0.9799718,5.333977
3.200379,137.7171,-1.273801,0.9798071,5.333977
3.249234,127.7995,-1.289418,0.9798071,5.340436
3.30095,122.9679,-1.270677,0.9798071,5.333977
3.350724,109.2358,-1.183219,0.9798071,5.333977
3.400187,106.0571,-1.036414,0.9796425,5.340436
3.449594,106.0571,-0.8552503,0.9798071,5.340436
3.500218,106.0571,-0.7740383,0.9798071,5.340436
3.551349,99.69969,-0.6709631,0.9798071,5.340436
3.600852,96.52097,-0.5460224,0.9798071,5.340436
3.649538,91.94361,-0.4398227,0.9798071,5.340436
3.699714,88.12916,-0.3523652,0.9798071,5.340436
3.749759,88.5106,-0.2742765,0.9798071,5.340436
3.80052,89.14634,-0.2118067,0.9798071,5.340436
3.851471,88.7649,-0.1743246,0.9798071,5.346895
3.900105,88.38345,-0.149337,0.9798071,5.340436
3.950095,90.03638,-0.1430892,0.9798071,5.340436
3.999716,125.2566,-0.04938391,0.9798071,5.333977
4.051077,143.566,0.1005445,0.9798071,5.340436
4.101162,131.8683,0.2192374,0.9796425,5.340436
4.149866,130.724,0.2660907,0.9799718,5.340436
4.200491,117.6276,0.3941547,0.9798071,5.340436
4.250515,118.1362,0.615924,0.9799718,5.333977
4.301501,116.8647,0.7096293,0.9798071,5.333977
4.351493,116.6105,0.7689757,0.9798071,5.333977
4.399697,108.0915,0.83457,0.9798071,5.327518
4.449717,104.5313,0.8408166,0.9798071,5.327518
4.499591,102.6241,0.7970879,0.9798071,5.327518
4.550633,101.0983,0.6752705,0.9799718,5.333977
4.600645,99.19109,0.5034777,0.9798071,5.327518
4.649338,98.80965,0.5222188,0.9796425,5.327518
4.699968,96.13953,0.4941066,0.9798071,5.327518
4.749604,91.43503,0.2254852,0.9799718,5.327518
4.801068,91.30788,-0.04313728,0.9799718,5.327518
4.850594,136.9542,-0.2086834,0.9798071,5.321059
4.900236,146.2361,-0.2211778,0.9798071,5.321059
4.949366,142.5488,-0.2805243,0.9798071,5.321059
4.999638,126.7823,-0.3648585,0.9798071,5.321059
5.050967,118.5177,-0.3742296,0.9798071,5.314599
5.10135,115.0847,-0.3304997,0.9798071,5.314599
5.150071,115.2118,-0.3086353,0.9798071,5.314599
5.199567,118.8991,-0.3242531,0.9798071,5.30814
5.249841,109.8716,-0.3398708,0.9799718,5.314599
5.301143,105.93,-0.3523652,0.9798071,5.314599
5.350928,103.0055,-0.3429941,0.9798071,5.314599
5.39947,101.3526,-0.3679818,0.9798071,5.314599
5.450093,99.82683,-0.4304527,0.9799718,5.30814
5.499596,98.6825,-0.4460705,0.9798071,5.30814
5.55084,97.15671,-0.4242061,0.9798071,5.30814
5.601435,93.34225,-0.4835526,0.9798071,5.301681
5.650333,90.92643,-0.5460224,0.9798071,5.301681
5.700136,122.0779,-0.5991222,0.9796425,5.301681
5.749588,151.7035,-0.6241099,0.9798071,5.301681
5.800362,148.0162,-0.6740864,0.9798071,5.295222
5.851213,135.5556,-0.7365562,0.9798071,5.295222
5.899426,131.4868,-0.8052738,0.9798071,5.288763
5.950134,119.2806,-0.8052738,0.9798071,5.295222
6.000066,118.0091,-0.8052738,0.9798071,5.288763
6.05113,118.0091,-0.8240148,0.9799718,5.288763
6.100707,116.1019,-0.8333859,0.9798071,5.288763
6.149308,105.6757,-0.8396326,0.9799718,5.288763
6.199357,102.6241,-0.8271381,0.9798071,5.288763
6.250133,99.06393,-0.8240148,0.9798071,5.288763
6.301126,97.28386,-0.8552503,0.9798071,5.288763
6.351102,95.75809,-0.8771147,0.9799718,5.288763
6.399824,94.86804,-0.8052738,0.9798071,5.288763
6.449594,93.72369,-0.7771628,0.9796425,5.288763
6.499608,88.25631,-0.8177682,0.9798071,5.288763
6.550851,100.5897,-0.9333378,0.9796425,5.288763
6.600299,133.6484,-0.9583255,0.9796425,5.288763
6.649364,147.5076,-0.9801911,0.9798071,5.288763
6.700127,136.3185,-1.033291,0.9798071,5.288763
6.750363,131.1054,-1.052032,0.9798071,5.295222
6.800326,126.7823,-0.9989321,0.9799718,5.288763
6.851131,116.6105,-0.9114735,0.9799718,5.295222
6.900167,114.9575,-0.8146449,0.9796425,5.295222
6.950135,115.7204,-0.7240629,0.9799718,5.295222
6.999787,110.5073,-0.6241099,0.9796425,5.295222
7.050342,104.7856,-0.5210347,0.9798071,5.301681
7.101353,100.9712,-0.4585637,0.9798071,5.301681
7.149875,99.44539,-0.3742296,0.9799718,5.295222
7.199874,98.30104,-0.286771,0.9798071,5.295222
7.249297,96.13953,-0.1993123,0.9798071,5.301681
7.300712,95.75809,-0.0931138,0.9798071,5.301681
7.350454,92.19792,0.03182693,0.9799718,5.30814
7.399477,88.25631,0.03807472,0.9798071,5.301681
7.449871,92.96081,0.03182693,0.9798071,5.301681
7.499599,136.1913,0.1755087,0.9798071,5.301681
7.550406,146.7447,0.2848317,0.9798071,5.301681
7.60137,129.9611,0.2754606,0.9798071,5.301681
7.649467,126.4009,0.2785851,0.9798071,5.301681
7.699959,116.4833,0.4160191,0.9798071,5.301681
7.749575,113.686,0.5940596,0.9799718,5.301681
7.801387,114.1946,0.7127526,0.9798071,5.30814
7.850721,114.9575,0.753358,0.9796425,5.301681
7.89947,107.8372,0.7158759,0.9798071,5.301681
7.949476,103.6413,0.6908882,0.9799718,5.301681
7.999374,99.95398,0.6315417,0.9799718,5.30814
8.051485,97.66531,0.4472545,0.9798071,5.301681
8.10102,96.26666,0.1973731,0.9798071,5.301681
8.149707,95.63092,0.0630624,0.9798071,5.301681
8.200415,94.86804,0.03495025,0.9798071,5.301681
8.250159,91.30788,-0.1430892,0.9798071,5.301681
8.301468,88.5106,-0.2961421,0.9798071,5.301681
8.35024,107.71,-0.3211297,0.9798071,5.295222
8.400094,145.9818,-0.3117586,0.9799718,5.295222
8.449821,126.6552,-0.3804762,0.9796425,5.288763
8.499443,123.095,-0.4929225,0.9798071,5.295222
8.551538,114.9575,-0.5428991,0.9798071,5.295222
8.600496,112.6688,-0.5397757,0.9798071,5.288763
8.650052,111.6517,-0.5585168,0.9798071,5.295222
8.699468,112.796,-0.6084933,0.9798071,5.288763
8.750195,106.5657,-0.5991222,0.9799718,5.288763
8.801467,102.1155,-0.5928756,0.9798071,5.288763
8.851114,99.44539,-0.5897511,0.9798071,5.288763
8.900425,97.79247,-0.6053689,0.9798071,5.288763
8.950239,96.01237,-0.6553454,0.9798071,5.288763
9.000091,95.75809,-0.6865808,0.9798071,5.288763
9.051464,94.35944,-0.6709631,0.9799718,5.288763
9.100564,91.68932,-0.7209396,0.9798071,5.295222
9.149317,89.40065,-0.8583736,0.9798071,5.295222
9.200361,120.2978,-1.008302,0.9799718,5.295222
9.249563,148.6519,-1.073896,0.9798071,5.301681
9.301292,142.8031,-1.133243,0.9798071,5.301681
9.350652,130.3425,-1.258183,0.9798071,5.30814
9.399361,126.7823,-2.282695,0.9798071,5.301681
9.449272,116.1019,-3.985009,0.9798071,5.30814
9.499356,116.4833,-3.594569,0.9798071,5.314599
9.551504,114.9575,-3.616435,0.9799718,5.327518
9.600361,113.8132,-3.632053,0.9799718,5.321059
9.649787,104.7856,-3.613312,0.9798071,5.327518
9.699537,101.3526,-3.544594,0.9798071,5.333977
9.750113,98.9368,-3.569582,0.9798071,5.340436
9.801505,96.39381,-3.647669,0.9798071,5.346895
9.851166,95.63092,-3.660164,0.9798071,5.353354
9.899565,94.86804,-3.541471,0.9798071,5.353354
9.950139,93.59654,-3.672658,0.9798071,5.366273
9.999798,89.5278,-3.844451,0.9796425,5.366273
10.05135,111.2702,-3.922539,0.9799718,5.366273
10.10135,147.1261,-3.928786,0.9798071,5.372732
10.1501,147.7619,-3.925662,0.9798071,5.372732
10.1996,133.0126,-3.928786,0.9799718,5.379191
10.24936,129.1982,-3.903797,0.9798071,5.379191
10.3004,120.5521,-3.797599,0.9796425,5.385651
10.35035,118.1362,-3.660164,0.9798071,5.385651
10.39959,117.3734,-3.472753,0.9799718,5.392109
10.44948,117.7548,-3.307207,0.9798071,5.392109
10.50045,108.8544,-3.072943,0.9796425,5.398569
10.55054,105.6757,-2.791828,0.9799718,5.405028
10.6003,102.6241,-2.585676,0.9798071,5.405028
10.64979,101.3526,-2.326425,0.9798071,5.405028
10.69948,100.3354,-1.829786,0.9796425,5.411487
10.74936,98.1739,-1.454964,0.9798071,5.405028
10.80063,96.39381,-1.348765,0.9796425,5.417946
10.85093,92.57936,-1.20196,0.9799718,5.417946
10.89983,124.1122,-0.7178152,0.9798071,5.417946
10.94982,149.7962,-0.6209866,0.9799718,5.424405
10.99983,144.5831,-0.5897511,0.9798071,5.424405
11.05077,131.4868,-0.5553935,0.9798071,5.424405
11.10078,127.2909,-0.5553935,0.9796425,5.424405
11.1496,118.3905,-0.4741815,0.9798071,5.430864
11.19947,117.7548,-0.2617833,0.9798071,5.430864
11.25022,118.772,0.06930903,0.9798071,5.437324
11.30052,117.3734,0.3285604,0.9798071,5.437324
11.35061,109.7444,0.4566245,0.9798071,5.437324
11.3998,106.0571,0.4941066,0.9798071,5.443783
11.44955,104.1499,0.3910314,0.9796425,5.443783
11.49932,102.497,0.2785851,0.9798071,5.443783
11.55031,100.9712,0.3160672,0.9798071,5.443783
11.60118,99.06393,0.1661388,0.9799718,5.450242
11.64934,94.10515,-0.0462606,0.9796425,5.450242
11.70025,103.6413,-0.3023887,0.9798071,5.450242
11.74971,145.4732,-0.3586119,0.9798071,5.450242
11.80056,145.2189,-0.5179114,0.9798071,5.456701
11.85043,126.2737,-0.6490988,0.9798071,5.456701
11.89977,118.772,-0.7115685,0.9798071,5.463161
11.95031,114.0675,-0.8396326,0.9798071,5.456701
12.00018,113.9403,-1.02392,0.9798071,5.463161
12.05043,115.9747,-1.136366,0.9799718,5.463161
12.10076,116.4833,-1.25506,0.9798071,5.469619
12.14939,107.5829,-1.267553,0.9799718,5.469619
12.20009,103.8956,-1.280048,0.9798071,5.469619
12.24997,101.3526,-1.339394,0.9799718,5.469619
12.30125,99.44539,-1.330024,0.9796425,5.476079
12.35077,98.6825,-1.20196,0.9799718,5.469619
12.40043,97.53816,-1.261307,0.9798071,5.476079
12.44988,94.35944,-1.301912,0.9798071,5.476079
12.50018,97.15671,-1.392494,0.9798071,5.482538
12.55093,150.9406,-1.392494,0.9798071,5.476079
12.6007,147.889,-1.364383,0.9799718,5.482538
12.65043,135.5556,-1.392494,0.9799718,5.482538
12.69969,132.2497,-1.4331,0.9796425,5.482538
12.75021,121.9507,-1.411235,0.9798071,5.488997
12.8011,118.5177,-1.386248,0.9798071,5.488997
12.85093,117.8819,-1.348765,0.9799718,5.488997
12.9,118.3905,-1.323777,0.9798071,5.488997
12.95005,111.6517,-1.270677,0.9798071,5.495456
12.99952,107.5829,-1.286294,0.9798071,5.501915
13.05109,104.6585,-1.404989,0.9798071,5.501915
13.10053,102.2427,-1.592399,0.9798071,5.508374
13.15034,101.3526,-1.598646,0.9798071,5.508374
13.20034,99.06393,-1.729833,0.9798071,5.508374
13.24982,95.24948,-1.998456,0.9798071,5.514833
13.30121,110.1259,-2.423253,0.9798071,5.521293
13.35106,138.7343,-2.648146,0.9798071,5.521293
13.3998,146.4904,-2.876163,0.9799718,5.521293
13.44952,143.1845,-3.304084,0.9798071,5.514833
13.50054,137.59,-3.975638,0.9799718,5.521293
13.55088,134.4113,-3.960021,0.9798071,5.527751
13.60058,124.1122,-3.853822,0.9798071,5.521293
13.64933,123.4765,-3.741375,0.9796425,5.527751
13.70013,124.2394,-3.5852,0.9796425,5.527751
13.74958,115.0847,-3.366554,0.9798071,5.521293
13.80081,111.906,-3.179143,0.9799718,5.527751
13.85059,108.3458,-3.082314,0.9798071,5.527751
13.89991,106.6929,-2.935509,0.9798071,5.527751
13.94978,105.1671,-2.557564,0.9799718,5.527751
13.99979,103.387,-2.117149,0.9799718,5.534211
14.05133,99.82683,-1.992209,0.9798071,5.534211
14.10126,107.9643,-1.786056,0.9798071,5.534211
14.14958,118.1362,-1.636128,0.9798071,5.527751
14.19945,151.9578,-1.508064,0.9798071,5.534211
14.24933,149.2876,-1.4331,0.9798071,5.534211
14.30058,140.8958,-1.226948,0.9798071,5.534211
14.35064,131.7411,-1.139489,0.9798071,5.54067
14.39933,124.3665,-1.07702,0.9798071,5.534211
14.44933,123.9851,-0.9302145,0.9798071,5.534211
14.49933,125.1294,-0.7771628,0.9798071,5.54067
14.55033,115.7204,-0.5116636,0.9798071,5.54067
14.60033,112.5417,-0.1712013,0.9798071,5.54067
14.64933,110.3802,-0.02439623,0.9798071,5.54067
14.70048,107.4557,0.2723373,0.9798071,5.547129
14.74953,106.3114,0.525342,0.9798071,5.547129
14.80058,104.0227,0.5784419,0.9798071,5.547129
14.85058,100.2083,0.4972299,0.9798071,5.553588
14.90058,99.44539,0.3473015,0.9798071,5.547129
14.9498,124.2394,0.2442263,0.9799718,5.553588
14.99951,152.2121,0.1005445,0.9798071,5.547129
15.05054,143.9474,-0.02751954,0.9799718,5.553588
15.10041,135.4285,-0.2649066,0.9798071,5.553588
15.15059,129.8339,-0.3148831,0.9798071,5.547129
15.20003,121.6964,-0.3523652,0.9798071,5.553588
15.25004,121.1878,-0.4023406,0.9798071,5.553588
15.30103,122.0779,-0.5147869,0.9798071,5.553588
15.35082,120.2978,-0.5678867,0.9799718,5.553588
15.39955,109.8716,-0.5616401,0.9799718,5.547129
15.44998,107.0743,-0.5928756,0.9796425,5.547129
15.50058,105.5485,-0.6772097,0.9798071,5.553588
15.55086,104.7856,-0.652222,0.9799718,5.553588
15.60085,103.6413,-0.6241099,0.9798071,5.547129
15.64953,97.9196,-0.7552972,0.9798071,5.547129
15.70047,100.2083,-0.8552503,0.9796425,5.553588
15.75,118.6448,-0.9302145,0.9798071,5.547129
15.80091,152.975,-0.96145,0.9798071,5.547129
15.85053,149.4148,-1.08639,0.9798071,5.553588
15.90032,139.6244,-1.183219,0.9799718,5.553588
15.9504,129.4525,-1.217578,0.9798071,5.560048
15.99988,122.3321,-1.226948,0.9798071,5.560048
16.05089,120.4249,-1.283171,0.9798071,5.560048
16.10129,120.0435,-1.376876,0.9798071,5.566507
16.14988,118.5177,-1.429976,0.9799718,5.566507
16.19967,108.4729,-1.420606,0.9798071,5.572966
16.25045,105.6757,-1.542423,0.9796425,5.572966
16.30131,104.4042,-1.782933,0.9799718,5.579425
16.35066,103.387,-1.773563,0.9798071,5.585885
16.40032,102.2427,-1.67361,0.9798071,5.585885
16.45004,97.53816,-1.976591,0.9798071,5.585885
16.49961,98.42819,-2.345166,0.9798071,5.585885
16.55068,126.4009,-2.520082,0.9798071,5.592343
16.60132,150.9406,-2.61691,0.9799718,5.592343
16.64951,147.6347,-2.726233,0.9798071,5.592343
16.70013,144.0746,-2.916768,0.9798071,5.598803
16.74936,136.4456,-3.044832,0.9799718,5.592343
16.80101,126.2737,-3.12292,0.9798071,5.598803
16.8504,124.6208,-3.110425,0.9798071,5.598803
16.90027,124.4937,-3.085438,0.9798071,5.598803
16.9498,117.3734,-3.054202,0.9799718,5.598803
17.00053,113.4317,-2.979238,0.9798071,5.605262
17.05065,109.6173,-2.976115,0.9799718,5.605262
17.10141,107.71,-3.001102,0.9798071,5.611721
17.15001,107.5829,-2.907397,0.9798071,5.605262
17.19979,105.6757,-2.704369,0.9799718,5.605262
17.24981,101.8612,-2.666887,0.9796425,5.611721
17.30057,99.19109,-2.60754,0.9798071,5.611721
17.3505,124.3665,-2.523205,0.9798071,5.611721
17.40039,153.865,-2.157755,0.9798071,5.611721
17.4499,151.0677,-1.970343,0.9798071,5.611721
17.49977,143.3117,-1.723586,0.9798071,5.611721
17.55086,139.3701,-1.54867,0.9796425,5.611721
17.60136,126.0195,-1.408112,0.9798071,5.61818
17.64951,125.1294,-1.226948,0.9796425,5.611721
17.69964,124.6208,-1.055155,0.9798071,5.61818
17.74956,117.3734,-0.9833143,0.9798071,5.61818
17.80051,111.906,-0.8208915,0.9798071,5.62464
17.85155,108.4729,-0.7334329,0.9798071,5.62464
17.90024,106.82,-0.6897042,0.9799718,5.62464
17.95016,106.1843,-0.5710101,0.9798071,5.62464
17.99949,104.277,-0.4398227,0.9798071,5.631098
18.05056,101.0983,-0.4273294,0.9798071,5.637558
18.10063,97.66531,-0.4304527,0.9798071,5.631098
18.14941,97.79247,-0.433576,0.9798071,5.631098
18.19974,153.3564,-0.4054651,0.9799718,5.631098
18.24949,149.2876,-0.4085884,0.9799718,5.637558
18.30094,135.8099,-0.4179583,0.9798071,5.637558
18.35115,130.4697,-0.4366994,0.9798071,5.637558
18.40003,120.0435,-0.4523171,0.9798071,5.637558
18.44976,120.9335,-0.4741815,0.9798071,5.637558
18.49964,122.5864,-0.5428991,0.9798071,5.637558
18.55063,113.8132,-0.5866278,0.9799718,5.637558
18.60063,110.5073,-0.6303577,0.9798071,5.637558
18.64941,107.2015,-0.7271863,0.9796425,5.637558
18.70034,106.1843,-0.9520789,0.9798071,5.637558
18.74964,103.7684,-0.9770677,0.9798071,5.637558
18.80061,102.6241,-0.8052738,0.9799718,5.637558
18.85056,100.3354,-0.9302145,0.9798071,5.637558
18.9005,96.77527,-1.01455,0.9798071,5.637558
18.94943,102.2427,-1.180096,0.9799718,5.631098
18.99997,153.1021,-1.261307,0.9796425,5.631098
19.05143,147.1261,-1.445594,0.9799718,5.637558
19.10083,138.0986,-1.636128,0.9799718,5.631098
19.15026,136.6999,-1.720463,0.9798071,5.62464
19.20014,122.205,-1.723586,0.9798071,5.631098
19.25015,120.8064,-1.732958,0.9799718,5.62464
19.30108,120.4249,-1.776686,0.9798071,5.62464
19.35127,120.1706,-1.910997,0.9798071,5.62464
19.40034,109.8716,-1.90475,0.9799718,5.62464
19.45001,106.6929,-1.898503,0.9798071,5.61818
19.50001,105.0399,-2.104655,0.9798071,5.62464
19.55088,103.5141,-2.485723,0.9798071,5.62464
19.60063,102.2427,-2.267077,0.9799718,5.62464
19.64943,101.0983,-2.248336,0.9798071,5.61818
19.6994,97.28386,-2.582553,0.9798071,5.61818
19.75026,101.0983,-2.710617,0.9798071,5.61818
19.80108,143.3117,-2.769963,0.9799718,5.61818
19.85078,153.1021,-2.773087,0.9798071,5.61818
19.90055,145.8546,-2.801198,0.9798071,5.611721
19.95042,140.1329,-2.816815,0.9798071,5.611721
19.99996,130.3425,-2.791828,0.9798071,5.611721
20.05088,122.205,-2.819939,0.9796425,5.611721
20.10113,121.1878,-2.938633,0.9798071,5.605262
20.1498,122.0779,-3.022967,0.9798071,5.605262
20.19973,113.0503,-3.054202,0.9799718,5.605262
20.24955,109.6173,-3.013597,0.9798071,5.605262
20.30122,106.6929,-3.00735,0.9798071,5.605262
20.35052,104.1499,-3.01672,0.9799718,5.605262
20.39997,102.6241,-2.95425,0.9798071,5.598803
20.44955,101.4798,-2.72311,0.9798071,5.598803
20.50057,100.3354,-2.629405,0.9798071,5.605262
20.55109,94.86804,-2.591923,0.9798071,5.605262
20.6005,99.95398,-2.441994,0.9798071,5.598803
20.64964,142.0402,-2.032815,0.9798071,5.598803
20.70034,152.3392,-1.66424,0.9798071,5.592343
20.74988,142.6759,-1.55804,0.9798071,5.592343
20.80072,139.2429,-1.467458,0.9799718,5.592343
20.85124,126.4009,-1.311283,0.9798071,5.592343
20.89984,123.3493,-1.105131,0.9798071,5.585885
20.94955,122.3321,-1.002055,0.9798071,5.585885
20.9995,120.9335,-0.8958557,0.9799718,5.585885
21.05053,111.906,-0.7802861,0.9798071,5.585885
21.10078,108.7272,-0.6678398,0.9798071,5.585885
21.14987,106.82,-0.5585168,0.9799718,5.585885
21.20055,104.5313,-0.4866759,0.9798071,5.585885
21.25,102.8784,-0.4460705,0.9798071,5.585885
21.30047,102.2427,-0.3523652,0.9798071,5.579425
21.3505,99.95398,-0.2461655,0.9798071,5.585885
21.39971,94.86804,-0.2399189,0.9799718,5.579425
21.45039,95.37663,-0.2617833,0.9799718,5.579425
21.49997,134.9198,-0.1743246,0.9798071,5.579425
21.55104,150.3048,-0.1555836,0.9798071,5.579425
21.60138,133.5212,-0.2805243,0.9798071,5.572966
21.6497,129.071,-0.4179583,0.9799718,5.572966
21.69995,118.3905,-0.4460705,0.9798071,5.566507
21.75048,116.9919,-0.4773048,0.9799718,5.572966
21.8007,117.3734,-0.5179114,0.9799718,5.572966
21.851,118.3905,-0.533528,0.9799718,5.572966
21.89963,109.6173,-0.5585168,0.9798071,5.572966
21.95032,104.0227,-0.5647634,0.9799718,5.566507
21.9995,102.1155,-0.6459754,0.9798071,5.566507
22.05148,99.82683,-0.8146449,0.9798071,5.572966
22.10163,99.06393,-0.8552503,0.9798071,5.566507
22.14975,98.42819,-0.8458792,0.9798071,5.566507
22.2,96.90242,-0.9770677,0.9799718,5.566507
22.25025,91.68932,-1.130119,0.9799718,5.572966
22.30103,97.79247,-1.292542,0.9798071,5.566507
22.35062,152.975,-1.348765,0.9798071,5.566507
22.4001,147.7619,-1.461212,0.9798071,5.566507
22.44979,134.2841,-1.583028,0.9798071,5.566507
22.49979,127.9267,-1.695474,0.9798071,5.572966
22.55095,118.3905,-1.71734,0.9798071,5.572966
22.60079,116.1019,-1.773563,0.9798071,5.572966
22.65052,115.339,-1.91412,0.9798071,5.572966
22.70035,114.9575,-1.976591,0.9798071,5.579425
22.75001,105.5485,-2.060925,0.9798071,5.572966
22.80128,102.1155,-2.092161,0.9798071,5.579425
22.85095,100.3354,-2.285819,0.9798071,5.579425
22.89952,96.90242,-2.529453,0.9798071,5.585885
22.95049,95.75809,-2.510712,0.9798071,5.585885
23.00027,95.24948,-2.410759,0.9798071,5.585885
23.0507,92.96081,-2.55444,0.9799718,5.592343
23.10059,92.32506,-2.716863,0.9798071,5.592343
23.15006,92.32506,-2.804322,0.9798071,5.592343
23.19949,151.9578,-2.823063,0.9798071,5.585885
23.25025,148.2705,-2.88241,0.9799718,5.592343
23.30123,136.9542,-2.976115,0.9798071,5.585885
23.35145,132.3769,-2.991733,0.9798071,5.592343
23.40049,120.4249,-2.985485,0.9798071,5.592343
23.44986,118.0091,-2.972991,0.9798071,5.592343
23.50031,116.9919,-2.960497,0.9798071,5.598803
23.55162,111.1431,-2.938633,0.9798071,5.598803
23.60164,106.0571,-2.891779,0.9799718,5.598803
23.64995,103.0055,-2.791828,0.9798071,5.598803
23.69962,100.2083,-2.729358,0.9798071,5.592343
23.75064,98.55534,-2.685628,0.9798071,5.598803
23.80062,96.64812,-2.423253,0.9798071,5.598803
23.85143,95.37663,-1.836033,0.9798071,5.598803
23.90004,93.34225,-1.701722,0.9798071,5.598803
23.95062,90.29069,-1.579905,0.9798071,5.598803
24.00062,140.5144,-1.504941,0.9798071,5.598803
24.05086,152.2121,-1.348765,0.9798071,5.598803
24.10138,139.2429,-1.214454,0.9798071,5.592343
24.15033,136.1913,-1.161355,0.9799718,5.598803
24.20023,123.3493,-1.020796,0.9798071,5.598803
24.25002,118.0091,-0.9270912,0.9798071,5.592343
24.30127,117.2462,-0.8427559,0.9798071,5.592343
24.35086,116.1019,-0.7334329,0.9798071,5.585885
24.3995,115.7204,-0.5803812,0.9799718,5.592343
24.45039,105.5485,-0.4835526,0.9798071,5.592343
24.49996,102.8784,-0.4366994,0.9796425,5.585885
24.55103,100.2083,-0.3929706,0.9799718,5.585885
24.60075,97.15671,-0.3898473,0.9799718,5.592343
24.65071,96.77527,-0.2211778,0.9798071,5.585885
24.70015,96.39381,-0.01190181,0.9799718,5.585885
24.75034,92.19792,-0.04001396,0.9798071,5.585885
24.80171,89.90925,-0.1805713,0.9799718,5.585885
24.8517,104.1499,-0.2430422,0.9798071,5.579425
24.90001,150.3048,-0.3461174,0.9798071,5.579425
24.95003,142.2945,-0.414835,0.9798071,5.579425
24.99955,125.1294,-0.4929225,0.9798071,5.579425
25.05144,115.0847,-0.5491457,0.9799718,5.572966
25.10158,111.1431,-0.6366043,0.9798071,5.572966
25.15014,111.0159,-0.7053219,0.9799718,5.572966
25.20002,113.0503,-0.7834094,0.9799718,5.572966
25.25002,106.0571,-0.7990271,0.9796425,5.572966
25.30058,101.8612,-0.8052738,0.9798071,5.572966
25.3505,99.06393,-0.8583736,0.9798071,5.566507
25.4005,95.88522,-0.9926843,0.9798071,5.566507
25.4505,96.01237,-1.064525,0.9798071,5.566507
25.50002,94.99519,-1.020796,0.9798071,5.566507
25.55134,92.57936,-1.142613,0.9799718,5.566507
25.60148,87.87486,-1.333148,0.9798071,5.560048
25.65027,112.9231,-1.470582,0.9798071,5.560048
25.70002,151.4492,-1.501817,0.9798071,5.560048
25.75023,149.9234,-1.561164,0.9798071,5.553588
25.80127,131.1054,-1.848527,0.9798071,5.553588
25.85054,126.4009,-2.039061,0.9798071,5.553588
25.8997,114.5761,-2.076543,0.9798071,5.553588
25.94954,112.9231,-2.123396,0.9798071,5.553588
25.99974,112.1602,-2.248336,0.9799718,5.553588
26.05068,111.0159,-2.385771,0.9799718,5.547129
26.1007,103.387,-2.398266,0.9799718,5.547129
26.15049,100.9712,-2.385771,0.9798071,5.547129
26.20052,97.66531,-2.454489,0.9798071,5.547129
26.2505,94.10515,-2.579428,0.9798071,5.54067
26.30125,94.2323,-2.579428,0.9798071,5.54067
26.35074,93.72369,-2.513835,0.9799718,5.54067
26.40051,89.90925,-2.588799,0.9799718,5.54067
26.45048,87.62056,-2.710617,0.9798071,5.54067
26.50026,121.315,-2.791828,0.9798071,5.54067
26.5512,150.9406,-2.791828,0.9798071,5.534211
26.60114,144.456,-2.848051,0.9798071,5.534211
26.65069,131.4868,-2.926138,0.9798071,5.534211
26.70021,125.8923,-2.935509,0.9796425,5.534211
26.75036,115.7204,-2.916768,0.9798071,5.527751
26.80159,113.4317,-2.898027,0.9799718,5.527751
26.85126,112.9231,-2.885533,0.9798071,5.527751
26.90059,107.9643,-2.854297,0.9798071,5.527751
26.94953,102.6241,-2.757469,0.9798071,5.527751
27.00046,99.06393,-2.648146,0.9798071,5.527751
27.05148,95.75809,-2.579428,0.9798071,5.521293
27.1011,95.24948,-2.338918,0.9798071,5.521293
27.15072,94.48659,-1.667363,0.9798071,5.521293
27.19972,92.19792,-1.508064,0.9798071,5.521293
27.24974,87.74771,-1.492446,0.9798071,5.521293
27.30157,90.29069,-1.495571,0.9798071,5.521293
27.35122,132.6312,-1.408112,0.9798071,5.521293
27.39966,147.1261,-1.298789,0.9799718,5.514833
27.4496,129.4525,-1.208207,0.9798071,5.514833
27.49991,123.9851,-1.042661,0.9798071,5.514833
27.55166,114.7032,-0.9583255,0.9798071,5.514833
27.60134,114.5761,-0.8646203,0.9799718,5.514833
27.64968,114.5761,-0.7771628,0.9799718,5.508374
27.70042,113.8132,-0.6928275,0.9798071,5.508374
27.74994,103.7684,-0.5428991,0.9798071,5.508374
27.80168,99.82683,-0.4398227,0.9798071,5.508374
27.85138,96.52097,-0.4179583,0.9798071,5.508374
27.90061,95.37663,-0.3929706,0.9798071,5.508374
27.95013,95.24948,-0.2961421,0.9798071,5.508374
27.99959,93.34225,-0.1618302,0.9799718,5.508374
28.05084,88.63776,-0.168078,0.9798071,5.508374
28.10173,93.34225,-0.2055601,0.9798071,5.514833
28.15001,93.34225,-0.1555836,0.9798071,5.508374
28.19974,136.1913,-0.1430892,0.9798071,5.514833
28.25069,131.4868,-0.2930176,0.9798071,5.508374
28.30158,119.662,-0.3742296,0.9798071,5.514833
28.35085,110.5073,-0.396094,0.9798071,5.508374
28.40072,110.253,-0.4242061,0.9798071,5.514833
28.45059,109.8716,-0.4616882,0.9799718,5.514833
28.5003,109.9987,-0.5147869,0.9798071,5.514833
28.55066,101.6069,-0.552269,0.9799718,5.514833
28.6017,98.42819,-0.6116166,0.9799718,5.521293
28.65033,94.48659,-0.7146918,0.9798071,5.521293
28.70053,94.2323,-0.7771628,0.9798071,5.521293
28.75072,93.85085,-0.7646683,0.9798071,5.521293
28.80073,91.94361,-0.8458792,0.9798071,5.521293
28.85151,87.49342,-1.017673,0.9798071,5.527751
28.90025,87.87486,-1.214454,0.9798071,5.521293
28.94982,116.1019,-1.295666,0.9799718,5.521293
29.00072,144.8374,-1.401865,0.9798071,5.527751
29.0507,126.7823,-1.492446,0.9799718,5.521293
29.10071,119.2806,-1.61114,0.9798071,5.521293
29.15021,111.7788,-1.654869,0.9798071,5.521293
29.20058,109.2358,-1.754822,0.9798071,5.527751
29.25045,109.2358,-1.842279,0.9798071,5.527751
29.30173,109.4901,-1.873515,0.9796425,5.521293
29.35125,100.9712,-1.857897,0.9798071,5.527751
29.39972,97.66531,-1.889133,0.9798071,5.527751
29.45045,94.86804,-2.139014,0.9798071,5.534211
29.50045,92.07076,-2.245213,0.9798071,5.534211
29.55106,91.56216,-2.039061,0.9798071,5.534211
29.60099,90.54498,-2.223348,0.9798071,5.534211
29.64967,87.49342,-2.507589,0.9798071,5.54067
29.70015,100.2083,-2.610664,0.9798071,5.54067
29.74957,146.2361,-2.629405,0.9798071,5.534211
29.80082,143.9474,-2.66064,0.9796425,5.54067
29.85172,130.724,-2.760592,0.9798071,5.54067
29.9005,125.1294,-2.791828,0.9798071,5.547129
29.95029,115.339,-2.791828,0.9798071,5.54067
29.99977,114.4489,-2.785581,0.9799718,5.54067
30.05093,113.8132,-2.791828,0.9798071,5.54067
30.10097,112.9231,-2.788704,0.9798071,5.547129
30.14976,103.7684,-2.738728,0.9799718,5.547129
30.20019,99.82683,-2.748099,0.9798071,5.547129
30.25024,97.15671,-2.785581,0.9798071,5.547129
30.30117,96.13953,-2.738728,0.9798071,5.547129
30.35118,94.48659,-2.635651,0.9798071,5.553588
30.39957,91.81647,-2.673135,0.9798071,5.553588
30.45045,89.40065,-2.751222,0.9799718,5.547129
30.49994,104.5313,-2.804322,0.9798071,5.553588
30.55173,147.5076,-2.763716,0.9796425,5.547129
30.60057,134.157,-2.751222,0.9798071,5.547129
30.65044,128.3081,-2.735605,0.9798071,5.553588
30.70028,120.9335,-2.629405,0.9798071,5.547129
30.75068,113.9403,-2.448241,0.9798071,5.547129
30.80176,112.6688,-2.007826,0.9799718,5.547129
30.8513,112.6688,-1.573658,0.9798071,5.553588
30.89981,108.3458,-1.38,0.9798071,5.547129
30.95065,102.2427,-1.180096,0.9798071,5.547129
31.0002,98.80965,-1.01455,0.9798071,5.547129
31.05136,96.52097,-0.9645733,0.9798071,5.547129
31.10108,95.63092,-0.8302626,0.9796425,5.547129
31.14975,95.63092,-0.6959508,0.9799718,5.547129
31.2007,90.67213,-0.661592,0.9798071,5.547129
31.25065,92.96081,-0.6490988,0.9798071,5.547129
31.30129,134.9198,-0.5866278,0.9799718,5.547129
31.3508,147.5076,-0.5022936,0.9798071,5.547129
31.39993,132.2497,-0.4773048,0.9799718,5.547129
31.44991,126.4009,-0.4429471,0.9798071,5.54067
31.50006,116.8647,-0.396094,0.9798071,5.54067
31.55103,112.5417,-0.3492408,0.9798071,5.54067
31.60082,111.5245,-0.3180064,0.9799718,5.54067
31.65032,112.1602,-0.2149301,0.9798071,5.54067
31.70029,106.3114,-0.03689064,0.9798071,5.547129
31.75009,101.3526,0.04119803,0.9798071,5.54067
31.80103,98.30104,0.05993908,0.9799718,5.54067
31.85167,97.9196,0.08805009,0.9799718,5.54067
31.90032,96.39381,0.1473966,0.9798071,5.54067
31.95031,92.96081,0.05056798,0.9798071,5.54067
32.00031,90.67213,-0.1587069,0.9799718,5.54067
32.05002,110.1259,-0.3211297,0.9798071,5.534211
32.09984,145.6003,-0.3273764,0.9798071,5.534211
32.15054,146.1089,-0.396094,0.9798071,5.534211
32.20107,121.6964,-0.5397757,0.9798071,5.534211
32.25031,112.2874,-0.6241099,0.9798071,5.534211
32.30032,109.6173,-0.6709631,0.9798071,5.534211
32.35003,109.4901,-0.7115685,0.9798071,5.534211
32.40023,111.0159,-0.7459273,0.9798071,5.534211
32.45164,111.0159,-0.7459273,0.9799718,5.534211
32.50043,99.95398,-0.7990271,0.9798071,5.534211
32.55016,98.42819,-0.9395844,0.9798071,5.54067
32.60067,95.75809,-1.005179,0.9798071,5.534211
32.65031,94.48659,-0.9489555,0.9799718,5.54067
32.70063,93.34225,-1.048908,0.9799718,5.54067
32.75006,90.29069,-1.270677,0.9799718,5.54067
32.80031,96.52097,-1.411235,0.9798071,5.547129
32.85018,137.7171,-1.454964,0.9798071,5.547129
32.89968,145.6003,-1.529928,0.9798071,5.547129
32.9514,129.1982,-1.826663,0.9798071,5.547129
32.99991,123.4765,-1.945356,0.9798071,5.547129
33.05031,114.1946,-1.973468,0.9799718,5.553588
33.10029,114.5761,-2.014073,0.9798071,5.553588
33.15073,113.8132,-2.185866,0.9798071,5.560048
33.20172,113.0503,-2.248336,0.9799718,5.553588
33.24963,102.8784,-2.238966,0.9798071,5.553588
33.30045,99.95398,-2.398266,0.9798071,5.560048
33.35053,98.9368,-2.457612,0.9799718,5.560048
33.39985,98.1739,-2.357659,0.9798071,5.566507
33.4512,96.13953,-2.326425,0.9798071,5.566507
33.50047,92.32506,-2.488847,0.9798071,5.566507
33.54992,96.77527,-2.629405,0.9799718,5.560048
33.60035,138.48,-2.663764,0.9799718,5.566507
33.65055,148.0162,-2.676258,0.9798071,5.566507
33.70166,135.8099,-2.735605,0.9798071,5.566507
33.75053,131.1054,-2.807445,0.9798071,5.566507
33.80003,119.4077,-2.804322,0.9799718,5.560048
33.85003,116.8647,-2.798074,0.9798071,5.566507
33.90073,115.7204,-2.791828,0.9798071,5.566507
33.95184,115.0847,-2.77621,0.9799718,5.566507
34.00014,113.5589,-2.710617,0.9798071,5.566507
34.0497,103.387,-2.701246,0.9798071,5.566507
34.09969,100.5897,-2.72311,0.9798071,5.566507
34.1498,99.06393,-2.694999,0.9798071,5.566507
34.2008,98.6825,-2.585676,0.9798071,5.566507
34.25053,94.61374,-2.613787,0.9798071,5.566507
34.30039,92.32506,-2.676258,0.9798071,5.566507
34.34999,106.9472,-2.685628,0.9798071,5.566507
34.39996,149.0334,-2.626281,0.9798071,5.566507
34.45083,146.4904,-2.5357,0.9798071,5.560048
34.50083,131.4868,-2.441994,0.9798071,5.560048
34.55043,120.0435,-2.039061,0.9798071,5.560048
34.59999,116.6105,-1.629881,0.9798071,5.560048
34.65015,114.9575,-1.398741,0.9799718,5.553588
34.70125,114.7032,-1.226948,0.9799718,5.560048
34.75006,114.0675,-0.9989321,0.9798071,5.560048
34.80066,104.1499,-0.880238,0.9798071,5.553588
34.85067,100.7169,-0.8146449,0.9798071,5.553588
34.90056,98.55534,-0.7209396,0.9798071,5.553588
34.95184,98.04675,-0.5866278,0.9798071,5.547129
35.00026,96.52097,-0.4929225,0.9798071,5.553588
35.04992,92.96081,-0.4897992,0.9798071,5.553588
35.10071,92.96081,-0.4648115,0.9798071,5.547129
35.14969,98.6825,-0.396094,0.9798071,5.547129
35.20165,140.0058,-0.3273764,0.9799718,5.547129
35.25005,140.8958,-0.3180064,0.9798071,5.54067
35.30078,125.7652,-0.2992654,0.9798071,5.54067
35.3504,115.2118,-0.2492889,0.9799718,5.54067
35.39989,113.3046,-0.08686601,0.9799718,5.54067
35.45184,112.6688,0.03495025,0.9798071,5.54067
35.50002,112.6688,0.1161622,0.9798071,5.54067
35.5503,104.1499,0.1692621,0.9798071,5.54067
35.60003,100.2083,0.1536443,0.9799718,5.54067
35.65069,98.80965,0.05681577,0.9799718,5.54067
35.70148,97.53816,0.04119803,0.9798071,5.54067
35.75052,96.64812,-0.005655175,0.9798071,5.54067
35.80025,93.34225,-0.2555355,0.9798071,5.547129
35.85048,91.05358,-0.3679818,0.9798071,5.54067
35.90054,107.2015,-0.4741815,0.9798071,5.54067
35.95187,145.2189,-0.552269,0.9798071,5.54067
36.00064,131.614,-0.661592,0.9798071,5.54067
36.05016,122.4593,-0.7459273,0.9799718,5.54067
36.10014,110.5073,-0.7990271,0.9798071,5.54067
36.14991,110.6345,-0.8583736,0.9798071,5.534211
36.20124,110.6345,-0.9395844,0.9798071,5.54067
36.2509,111.5245,-0.989561,0.9798071,5.534211
36.30037,111.2702,-0.9833143,0.9798071,5.54067
36.35054,99.44539,-1.083266,0.9798071,5.534211
36.40089,96.64812,-1.239442,0.9798071,5.54067
36.45107,96.64812,-1.251936,0.9798071,5.54067
36.49978,95.63092,-1.170725,0.9798071,5.54067
36.55011,92.19792,-1.320653,0.9799718,5.534211
36.59981,90.67213,-1.486199,0.9798071,5.54067
36.65091,113.1774,-1.704845,0.9798071,5.54067
36.70176,148.5248,-1.798551,0.9798071,5.54067
36.74987,146.1089,-1.873515,0.9798071,5.54067
36.79966,130.0882,-2.151507,0.9798071,5.54067
36.85075,122.5864,-2.298312,0.9798071,5.54067
36.90068,114.4489,-2.276448,0.9798071,5.54067
36.95174,113.3046,-2.276448,0.9799718,5.54067
37.00017,113.0503,-2.307683,0.9798071,5.547129
37.05063,111.5245,-2.295189,0.9798071,5.547129
37.10053,102.1155,-2.238966,0.9798071,5.553588
37.15042,100.9712,-2.370153,0.9799718,5.553588
37.2017,98.04675,-2.451364,0.9799718,5.553588
37.25063,97.15671,-2.363907,0.9799718,5.560048
37.30064,96.39381,-2.373277,0.9798071,5.560048
37.35019,92.07076,-2.516958,0.9798071,5.566507
37.40017,92.32506,-2.632528,0.9799718,5.560048
37.4512,122.3321,-2.67001,0.9799718,5.566507
37.4999,147.3804,-2.67001,0.9798071,5.566507
37.5507,134.4113,-2.729358,0.9799718,5.566507
37.60044,130.4697,-2.794951,0.9798071,5.572966
37.65068,119.2806,-2.791828,0.9799718,5.566507
37.70151,117.2462,-2.782456,0.9796425,5.566507
37.74993,116.229,-2.760592,0.9798071,5.572966
37.79989,115.2118,-2.710617,0.9798071,5.572966
37.85086,107.71,-2.582553,0.9799718,5.572966
37.90044,103.2598,-2.460735,0.9798071,5.572966
37.95139,100.2083,-2.279572,0.9798071,5.572966
37.99988,99.69969,-1.867268,0.9798071,5.572966
38.0507,97.15671,-1.395617,0.9798071,5.572966
38.10042,94.35944,-1.361259,0.9798071,5.579425
38.1497,92.96081,-1.261307,0.9798071,5.579425
38.20095,100.0811,-1.173848,0.9798071,5.579425
38.25087,150.432,-0.9645733,0.9799718,5.572966
38.30013,145.4732,-0.9052268,0.9798071,5.572966
38.35006,130.9782,-0.870868,0.9799718,5.572966
38.40025,125.0023,-0.7802861,0.9798071,5.572966
38.45087,114.3218,-0.6678398,0.9798071,5.579425
38.49999,113.4317,-0.5959989,0.9798071,5.572966
38.55062,112.5417,-0.4866759,0.9799718,5.572966
38.60063,112.2874,-0.3804762,0.9798071,5.572966
38.65074,102.497,-0.3148831,0.9798071,5.572966
38.70147,98.42819,-0.2836476,0.9799718,5.572966
38.75016,97.41101,-0.2617833,0.9798071,5.572966
38.80016,95.75809,-0.02751954,0.9798071,5.566507
38.84995,94.86804,0.03807472,0.9798071,5.566507
38.90101,91.18073,-0.002531858,0.9798071,5.572966
38.95164,107.4557,-0.04938391,0.9798071,5.572966
39.0004,144.7103,-0.01502512,0.9799718,5.566507
39.04988,146.7447,-0.09623712,0.9799718,5.566507
39.10076,123.3493,-0.2430422,0.9798071,5.566507
39.15069,118.0091,-0.2836476,0.9799718,5.566507
39.20166,110.253,-0.2898943,0.9799718,5.566507
39.25028,109.7444,-0.3023887,0.9798071,5.566507
39.3003,110.5073,-0.3398708,0.9798071,5.566507
39.35006,111.2702,-0.3461174,0.9798071,5.566507
39.40081,101.7341,-0.3804762,0.9799718,5.572966
39.45182,97.66531,-0.4991703,0.9798071,5.566507
39.50051,96.01237,-0.5710101,0.9799718,5.572966
39.55051,94.86804,-0.533528,0.9798071,5.566507
39.60053,93.34225,-0.6303577,0.9799718,5.566507
39.65036,90.29069,-0.7303095,0.9798071,5.572966
39.70173,105.93,-0.880238,0.9798071,5.572966
39.75038,144.2017,-0.9427089,0.9798071,5.572966
39.79981,146.3632,-1.061402,0.9799718,5.572966
39.85069,126.528,-1.242566,0.9798071,5.572966
39.90035,118.0091,-1.351889,0.9798071,5.572966
39.95169,110.8888,-1.364383,0.9798071,5.572966
40.00029,109.6173,-1.398741,0.9798071,5.579425
40.05006,109.8716,-1.442471,0.9799718,5.572966
40.10014,110.3802,-1.445594,0.9798071,5.572966
40.15063,102.8784,-1.467458,0.9799718,5.579425
40.20188,98.30104,-1.72671,0.9799718,5.579425
40.25068,95.63092,-1.814168,0.9799718,5.579425
40.30036,95.63092,-1.667363,0.9798071,5.579425
40.34985,93.2151,-1.832909,0.9798071,5.572966
40.40004,89.5278,-2.204607,0.9799718,5.585885
40.45129,116.7376,-2.441994,0.9798071,5.572966
40.50051,149.5419,-2.457612,0.9798071,5.579425
40.55037,147.6347,-2.520082,0.9799718,5.579425
40.60093,131.9954,-2.610664,0.9799718,5.579425
40.65093,126.2737,-2.676258,0.9799718,5.579425
40.70084,115.8476,-2.679381,0.9798071,5.579425
40.74993,114.9575,-2.676258,0.9798071,5.572966
40.80061,114.0675,-2.679381,0.9799718,5.572966
40.85052,112.5417,-2.663764,0.9799718,5.572966
40.90066,104.4042,-2.666887,0.9798071,5.572966
40.95193,99.95398,-2.701246,0.9798071,5.572966
41.00093,98.1739,-2.682505,0.9798071,5.579425
41.05032,97.15671,-2.551317,0.9798071,5.572966
41.10085,93.46941,-2.566935,0.9798071,5.572966
41.14993,91.05358,-2.623158,0.9799718,5.572966
41.20141,99.69969,-2.645022,0.9799718,5.572966
41.25033,149.2876,-2.560687,0.9799718,5.566507
41.30079,144.3289,-2.466982,0.9798071,5.566507
41.35043,129.3253,-2.288943,0.9798071,5.572966
41.40038,120.9335,-1.864145,0.9798071,5.566507
41.45186,115.0847,-1.473705,0.9798071,5.566507
41.50066,112.6688,-1.298789,0.9798071,5.566507
41.55024,112.9231,-1.052032,0.9798071,5.566507
41.60048,113.3046,-0.8677447,0.9798071,5.566507
41.65005,104.9128,-0.8052738,0.9799718,5.566507
41.70095,101.0983,-0.6928275,0.9798071,5.566507
41.75092,99.44539,-0.5616401,0.9798071,5.560048
41.80092,98.1739,-0.4554404,0.9799718,5.560048
41.85093,94.48659,-0.433576,0.9798071,5.566507
41.90061,93.08795,-0.4179583,0.9798071,5.560048
41.95158,131.8683,-0.3554885,0.9799718,5.560048
41.99987,150.1777,-0.2961421,0.9798071,5.560048
42.05045,141.1501,-0.2930176,0.9798071,5.560048
42.10049,125.7652,-0.2805243,0.9799718,5.560048
42.15005,122.205,-0.2524122,0.9798071,5.560048
42.20115,113.3046,-0.1337192,0.9799718,5.560048
42.25043,112.6688,0.003715928,0.9799718,5.560048
42.30009,112.1602,0.1349033,0.9798071,5.560048
42.34979,111.906,0.1880031,0.9798071,5.560048
42.40092,102.2427,0.2004964,0.9799718,5.560048
42.45092,99.44539,0.2629673,0.9798071,5.560048
42.50089,97.9196,0.350426,0.9798071,5.566507
42.54977,96.01237,0.2348552,0.9798071,5.566507
42.60092,92.57936,0.03807472,0.9798071,5.566507
42.65088,122.8407,-0.08686601,0.9799718,5.566507
42.70158,149.2876,-0.1618302,0.9798071,5.566507
42.7505,147.2533,-0.2742765,0.9798071,5.572966
42.8008,125.2566,-0.3117586,0.9799718,5.572966
42.84982,115.7204,-0.3492408,0.9798071,5.572966
42.90062,111.2702,-0.3617352,0.9798071,5.579425
42.95161,111.7788,-0.396094,0.9799718,5.579425
43.00004,112.1602,-0.4054651,0.9798071,5.579425
43.04999,112.1602,-0.4117117,0.9798071,5.579425
43.10036,102.6241,-0.5147869,0.9796425,5.579425
43.15075,100.4626,-0.5772578,0.9798071,5.585885
43.20096,98.42819,-0.552269,0.9798071,5.585885
43.25036,96.77527,-0.6053689,0.9798071,5.585885
43.29985,92.83366,-0.7084452,0.9799718,5.585885
43.35061,103.387,-0.852127,0.9798071,5.592343
43.40014,145.8546,-0.9239679,0.9799718,5.585885
43.45104,143.4388,-1.027043,0.9798071,5.592343
43.50034,130.0882,-1.21133,0.9798071,5.585885
43.55,125.2566,-1.333148,0.9798071,5.585885
43.60041,114.7032,-1.348765,0.9798071,5.592343
43.65071,112.9231,-1.376876,0.9799718,5.585885
43.70146,114.0675,-1.408112,0.9798071,5.592343
43.75087,114.5761,-1.392494,0.9798071,5.585885
43.80061,104.6585,-1.426853,0.9798071,5.592343
43.85012,101.3526,-1.579905,0.9798071,5.592343
43.90091,100.7169,-1.592399,0.9798071,5.592343
43.95175,98.42819,-1.504941,0.9798071,5.592343
44.00041,95.24948,-1.820415,0.9799718,5.585885
44.05051,94.48659,-2.07342,0.9798071,5.592343
44.10075,117.6276,-2.273325,0.9798071,5.592343
44.14991,136.0642,-2.310807,0.9798071,5.585885
44.20158,137.2085,-2.413882,0.9799718,5.585885
44.25024,135.3013,-2.529453,0.9798071,5.585885
44.30054,123.6036,-2.5357,0.9798071,5.585885
44.34984,118.8991,-2.548194,0.9798071,5.585885
44.40083,119.0263,-2.55444,0.9798071,5.585885
44.45163,117.6276,-2.532576,0.9798071,5.585885
44.50036,117.2462,-2.507589,0.9798071,5.585885
44.55089,105.2942,-2.538823,0.9798071,5.585885
44.60089,102.8784,-2.557564,0.9799718,5.585885
44.65062,102.3698,-2.460735,0.9798071,5.585885
44.70118,98.9368,-2.4295,0.9798071,5.579425
44.7506,94.99519,-2.438871,0.9798071,5.579425
44.80036,101.7341,-2.42013,0.9798071,5.579425
44.85096,152.2121,-2.107779,0.9798071,5.579425
44.90087,150.1777,-1.729833,0.9798071,5.579425
44.95139,138.8615,-1.489323,0.9798071,5.579425
44.99991,132.1226,-1.361259,0.9799718,5.579425
45.0499,119.5349,-1.170725,0.9798071,5.579425
45.0999,118.2634,-0.9583255,0.9799718,5.579425
45.15083,117.3734,-0.8302626,0.9798071,5.579425
45.2009,116.3562,-0.6803331,0.9799718,5.579425
45.2504,106.4386,-0.5647634,0.9799718,5.579425
45.3004,102.7513,-0.5054169,0.9798071,5.572966
45.34998,101.3526,-0.4210816,0.9798071,5.579425
45.40061,100.3354,-0.2930176,0.9799718,5.579425
45.45203,97.9196,-0.2524122,0.9798071,5.572966
45.50034,93.46941,-0.2430422,0.9798071,5.579425
45.54987,95.24948,-0.2524122,0.9799718,5.579425
45.60034,136.6999,-0.2274245,0.9798071,5.579425
45.6504,150.1777,-0.2118067,0.9798071,5.579425
45.70156,131.614,-0.1430892,0.9798071,5.579425
45.74986,127.2909,-0.07749607,0.9799718,5.585885
45.80071,115.8476,0.0536913,0.9798071,5.579425
45.85067,113.8132,0.13178,0.9798071,5.585885
45.90067,115.2118,0.178632,0.9798071,5.585885
45.95145,115.339,0.1973731,0.9798071,5.585885
46.00086,105.8028,0.1942498,0.9799718,5.579425
46.05008,102.6241,0.1349033,0.9799718,5.585885
46.10011,100.7169,0.009962562,0.9798071,5.585885
46.15063,99.31824,-0.03376618,0.9798071,5.585885
46.20198,97.41101,-0.08686601,0.9799718,5.579425
46.2506,94.48659,-0.286771,0.9799718,5.592343
46.30064,97.9196,-0.4210816,0.9796425,5.585885
46.35036,139.2429,-0.5116636,0.9798071,5.585885
46.40023,151.9578,-0.5428991,0.9798071,5.585885
46.45135,132.7583,-0.6709631,0.9799718,5.585885
46.50099,123.095,-0.752174,0.9798071,5.585885
46.55085,115.2118,-0.7990271,0.9798071,5.585885
46.60102,113.1774,-0.8958557,0.9799718,5.579425
46.651,113.0503,-0.9926843,0.9799718,5.585885
46.70134,113.4317,-1.064525,0.9799718,5.579425
46.75049,104.5313,-1.027043,0.9798071,5.585885
46.80016,101.2255,-1.052032,0.9799718,5.579425
46.84983,98.04675,-1.167602,0.9798071,5.585885
46.90082,97.41101,-1.205084,0.9799718,5.585885
46.95148,96.52097,-1.089514,0.9798071,5.579425
47.00098,92.7065,-1.230071,0.9801366,5.579425
47.04997,91.56216,-1.398741,0.9798071,5.585885
47.09998,93.72369,-1.536176,0.9798071,5.579425
47.14999,132.1226,-1.564287,0.9798071,5.572966
47.20199,146.6175,-1.751699,0.9798071,5.579425
47.25044,134.6656,-1.920368,0.9799718,5.572966
47.3004,125.8923,-2.007826,0.9798071,5.572966
47.35062,116.1019,-2.004702,0.9798071,5.572966
47.40095,116.1019,-2.007826,0.9798071,5.572966
47.4517,115.7204,-2.01095,0.9798071,5.572966
47.50014,111.3974,-2.014073,0.9798071,5.572966
47.55007,103.6413,-1.939109,0.9798071,5.572966
47.60027,99.57254,-1.960974,0.9798071,5.572966
47.65076,96.64812,-2.110902,0.9798071,5.572966
47.70092,96.13953,-2.023443,0.9798071,5.566507
47.75023,94.74089,-1.764192,0.9798071,5.566507
47.80082,91.56216,-1.929738,0.9799718,5.566507
47.85048,92.7065,-2.226472,0.9798071,5.566507
47.9001,122.205,-2.320177,0.9798071,5.560048
47.95193,150.1777,-2.295189,0.9798071,5.566507
48.00006,137.8443,-2.323301,0.9798071,5.560048
48.05022,133.3941,-2.401389,0.9798071,5.560048
48.10022,121.9507,-2.385771,0.9799718,5.560048
48.1501,116.7376,-2.351412,0.9798071,5.553588
48.20184,113.686,-2.332671,0.9799718,5.560048
48.25039,113.4317,-2.31393,0.9798071,5.553588
48.30039,106.3114,-2.242089,0.9798071,5.553588
48.35035,102.3698,-2.035938,0.9799718,5.553588
48.39992,98.9368,-1.973468,0.9798071,5.553588
48.45084,96.01237,-2.123396,0.9798071,5.553588
48.50007,95.88522,-2.098408,0.9798071,5.547129
48.55095,94.48659,-1.773563,0.9798071,5.547129
48.60021,91.94361,-1.798551,0.9798071,5.547129
48.65007,89.2735,-1.836033,0.9798071,5.547129
48.70129,121.1878,-1.776686,0.9798071,5.547129
48.74995,151.5763,-1.511187,0.9799718,5.54067
48.80082,145.4732,-1.339394,0.9798071,5.547129
48.85086,131.4868,-1.245689,0.9799718,5.54067
48.90038,118.772,-1.073896,0.9798071,5.54067
48.9513,113.4317,-0.8958557,0.9798071,5.54067
49.0006,113.5589,-0.8083971,0.9799718,5.54067
49.05084,112.4145,-0.6647165,0.9798071,5.54067
49.10061,111.1431,-0.5866278,0.9798071,5.54067
49.1506,102.6241,-0.4773048,0.9799718,5.54067
49.20187,98.42819,-0.3648585,0.9798071,5.534211
49.25076,96.13953,-0.3086353,0.9798071,5.534211
49.30084,92.96081,-0.2805243,0.9799718,5.54067
49.35071,91.81647,-0.2367944,0.9798071,5.54067
49.4007,91.43503,-0.1743246,0.9799718,5.534211
49.45186,88.25631,-0.2055601,0.9798071,5.534211
49.50058,95.12233,-0.2274245,0.9798071,5.534211
49.55081,145.7275,-0.1149782,0.9798071,5.534211
49.60056,146.999,-0.05875501,0.9799718,5.534211
49.65046,124.4937,-0.06812496,0.9799718,5.527751
49.70143,119.2806,-0.04313728,0.9799718,5.527751
49.75026,110.6345,0.06618572,0.9798071,5.527751
49.80091,109.7444,0.1161622,0.9801366,5.527751
49.85025,109.8716,0.1411499,0.9798071,5.527751
49.90079,110.5073,0.1442732,0.9798071,5.521293
49.95157,103.0055,0.1286555,0.9798071,5.527751
50.00009,98.55534,0.1255322,0.9799718,5.521293
50.05005,95.75809,0.1005445,0.9799718,5.527751
50.10008,93.978,-0.02127291,0.9798071,5.521293
50.15035,93.85085,-0.08061938,0.9798071,5.521293
50.20178,92.45221,-0.02751954,0.9799718,5.521293
50.25034,89.40065,-0.2024356,0.9799718,5.521293
50.30034,86.09478,-0.2961421,0.9799718,5.521293
50.35108,120.0435,-0.3711063,0.9798071,5.514833
50.40055,150.6863,-0.3992173,0.9799718,5.514833
50.45189,145.2189,-0.4929225,0.9798071,5.514833
50.50058,123.6036,-0.5866278,0.9798071,5.514833
50.55059,112.9231,-0.6272343,0.9799718,5.508374
50.60056,109.8716,-0.6366043,0.9798071,5.514833
50.65109,108.7272,-0.661592,0.9799718,5.508374
50.70192,108.7272,-0.6959508,0.9798071,5.508374
50.75058,103.7684,-0.7178152,0.9799718,5.508374
50.80054,98.04675,-0.7240629,0.9798071,5.514833
50.84997,94.99519,-0.7552972,0.9798071,5.508374
50.90091,92.57936,-0.9083502,0.9798071,5.508374
50.95169,91.43503,-1.027043,0.9799718,5.501915
51.00021,91.05358,-0.9270912,0.9798071,5.508374
51.0509,88.63776,-1.048908,0.9798071,5.508374
51.10005,85.71333,-1.245689,0.9799718,5.501915
51.15046,88.12916,-1.386248,0.9796425,5.501915
51.20174,150.1777,-1.420606,0.9798071,5.501915
51.25108,146.4904,-1.542423,0.9798071,5.501915
51.30042,128.0538,-1.823538,0.9798071,5.501915
51.34996,118.1362,-1.945356,0.9798071,5.495456
51.39997,112.6688,-1.985961,0.9798071,5.495456
51.45206,111.1431,-2.067173,0.9798071,5.495456
51.5008,111.0159,-2.198361,0.9799718,5.495456
51.5506,109.6173,-2.279572,0.9798071,5.495456
51.60083,102.1155,-2.254584,0.9799718,5.495456
51.65105,98.42819,-2.257707,0.9798071,5.488997
51.7014,94.2323,-2.388894,0.9798071,5.495456
51.7501,92.32506,-2.417006,0.9796425,5.495456
51.80087,91.05358,-2.317054,0.9799718,5.488997
51.85017,89.78209,-2.338918,0.9798071,5.495456
51.9002,87.36626,-2.476353,0.9798071,5.495456
51.95205,119.9163,-2.566935,0.9798071,5.488997
52.0007,150.9406,-2.560687,0.9799718,5.495456
52.05017,147.2533,-2.563812,0.9799718,5.488997
52.10006,130.724,-2.620035,0.9798071,5.495456
52.15083,126.1466,-2.61691,0.9799718,5.488997
52.20182,115.4661,-2.541946,0.9799718,5.488997
52.25005,112.9231,-2.448241,0.9799718,5.488997
52.30095,111.906,-2.123396,0.9799718,5.488997
52.35008,111.1431,-1.71734,0.9798071,5.488997
52.40005,104.5313,-1.389371,0.9798071,5.488997
52.45193,99.57254,-1.208207,0.9798071,5.488997
52.50021,94.99519,-1.070773,0.9799718,5.495456
52.55106,93.34225,-0.9302145,0.9798071,5.488997
52.60006,92.7065,-0.7677917,0.9799718,5.495456
52.6506,91.05358,-0.652222,0.9798071,5.495456
52.70155,86.73053,-0.6303577,0.9799718,5.495456
52.75008,109.4901,-0.6241099,0.9798071,5.495456
52.8006,150.1777,-0.5553935,0.9799718,5.495456
52.85031,145.7275,-0.5085403,0.9799718,5.495456
52.90059,126.7823,-0.4710582,0.9798071,5.495456
52.95184,119.4077,-0.414835,0.9798071,5.495456
53.0008,112.0331,-0.3367475,0.9799718,5.488997
53.05086,110.253,-0.277401,0.9798071,5.488997
53.10084,109.9987,-0.2430422,0.9796425,5.495456
53.14997,109.9987,-0.2149301,0.9798071,5.495456
53.2011,103.0055,-0.0556317,0.9799718,5.495456
53.25102,97.9196,0.04432135,0.9798071,5.495456
53.30086,94.2323,0.07243235,0.9798071,5.495456
53.35087,92.7065,0.07555682,0.9798071,5.495456
53.40086,92.32506,0.1224089,0.9798071,5.501915
53.4511,90.29069,0.04432135,0.9798071,5.495456
53.50086,86.47623,-0.1712013,0.9796425,5.495456
53.55009,101.2255,-0.2680299,0.9798071,5.495456
53.60081,143.8203,-0.2805243,0.9799718,5.495456
53.65081,146.3632,-0.3679818,0.9798071,5.495456
53.70127,120.5521,-0.4835526,0.9796425,5.488997
53.75045,114.1946,-0.5397757,0.9799718,5.495456
53.80007,106.4386,-0.5553935,0.9799718,5.495456
53.85081,106.0571,-0.5616401,0.9798071,5.488997
53.90034,105.93,-0.5803812,0.9798071,5.488997
53.95166,106.4386,-0.5959989,0.9798071,5.488997
54.00013,97.66531,-0.5866278,0.9798071,5.488997
54.05032,94.2323,-0.5959989,0.9799718,5.488997
54.10067,91.43503,-0.652222,0.9798071,5.488997
54.15061,89.65494,-0.6865808,0.9798071,5.488997
54.20173,88.38345,-0.652222,0.9798071,5.488997
54.25086,87.62056,-0.7053219,0.9799718,5.488997
54.30054,85.20473,-0.8833613,0.9799718,5.495456
54.35046,95.12233,-1.083266,0.9798071,5.488997
54.40046,148.0162,-1.089514,0.9798071,5.488997
54.45106,143.3117,-1.183219,0.9798071,5.488997
54.50079,123.9851,-1.333148,0.9799718,5.482538
54.5502,115.0847,-1.367507,0.9798071,5.482538
54.60021,109.4901,-1.383124,0.9798071,5.482538
54.65025,108.4729,-1.404989,0.9799718,5.476079
54.70214,107.4557,-1.445594,0.9798071,5.476079
54.75112,106.6929,-1.486199,0.9798071,5.476079
54.80073,97.53816,-1.458088,0.9799718,5.482538
54.8503,94.10515,-1.489323,0.9799718,5.482538
54.90097,90.67213,-1.72671,0.9799718,5.476079
54.95166,90.41783,-1.742328,0.9798071,5.476079
55.00088,89.14634,-1.545546,0.9798071,5.476079
55.05021,86.22193,-1.77981,0.9798071,5.476079
55.10085,84.44184,-2.104655,0.9798071,5.476079
55.15097,108.4729,-2.301436,0.9798071,5.476079
55.20208,147.1261,-2.301436,0.9798071,5.469619
55.25085,142.9302,-2.360783,0.9798071,5.469619
55.30027,124.8751,-2.513835,0.9798071,5.469619
55.34997,115.9747,-2.5357,0.9799718,5.469619
55.40102,110.5073,-2.529453,0.9798071,5.469619
55.45124,107.9643,-2.529453,0.9798071,5.469619
55.50089,107.5829,-2.5357,0.9798071,5.463161
55.5506,103.387,-2.5357,0.9798071,5.463161
55.60029,99.19109,-2.491971,0.9798071,5.469619
55.6501,95.12233,-2.495094,0.9799718,5.469619
55.70102,93.46941,-2.541946,0.9798071,5.463161
55.75093,90.29069,-2.529453,0.9799718,5.469619
55.80093,89.65494,-2.385771,0.9799718,5.463161
55.85109,87.87486,-2.357659,0.9798071,5.463161
55.9004,84.82329,-2.382648,0.9798071,5.463161
55.95116,112.0331,-2.307683,0.9798071,5.456701
56.0008,147.7619,-1.898503,0.9798071,5.463161
56.05017,145.346,-1.642376,0.9798071,5.456701
56.10077,123.9851,-1.439347,0.9799718,5.456701
56.15003,116.229,-1.305036,0.9798071,5.456701
56.20123,109.4901,-1.092637,0.9798071,5.450242
56.25118,108.7272,-0.9114735,0.9799718,5.456701
56.30084,107.9643,-0.8021505,0.9798071,5.450242
56.35085,107.2015,-0.6647165,0.9799718,5.450242
56.40069,98.6825,-0.5585168,0.9798071,5.450242
56.45172,94.86804,-0.4835526,0.9798071,5.450242
56.50115,92.7065,-0.4179583,0.9798071,5.450242
56.55109,90.41783,-0.3492408,0.9798071,5.450242
56.60109,90.67213,-0.2461655,0.9798071,5.443783
56.65109,87.49342,-0.2367944,0.9799718,5.450242
56.70152,84.44184,-0.2274245,0.9798071,5.450242
56.75035,90.67213,-0.2430422,0.9796425,5.443783
56.80056,125.638,-0.2149301,0.9799718,5.443783
56.85056,141.6587,-0.2024356,0.9798071,5.443783
56.90102,119.7892,-0.168078,0.9798071,5.443783
56.95123,111.906,-0.0931138,0.9798071,5.443783
57.00009,105.6757,-0.008778491,0.9798071,5.437324
57.05032,106.0571,0.07243235,0.9798071,5.443783
57.10032,105.93,0.1255322,0.9798071,5.443783
57.15109,106.0571,0.1692621,0.9798071,5.443783
57.20107,99.06393,0.1692621,0.9798071,5.437324
57.25012,94.99519,0.1286555,0.9799718,5.437324
57.30094,91.05358,0.04119803,0.9798071,5.437324
57.35075,89.90925,-0.08998933,0.9798071,5.437324
57.40045,89.0192,-0.08686601,0.9798071,5.437324
57.45156,87.23911,-0.2305478,0.9798071,5.437324
57.50013,83.67896,-0.3273764,0.9798071,5.437324
57.55056,101.0983,-0.4929225,0.9798071,5.437324
57.60184,140.8958,-0.5147869,0.9796425,5.430864
57.65056,138.8615,-0.5616401,0.9798071,5.437324
57.70173,117.3734,-0.6834575,0.9798071,5.430864
57.75121,110.7616,-0.7615451,0.9796425,5.430864
57.80052,104.5313,-0.7990271,0.9799718,5.430864
57.85184,103.2598,-0.8583736,0.9799718,5.430864
57.90054,103.6413,-0.9552022,0.9799718,5.430864
57.95184,104.6585,-1.030166,0.9798071,5.430864
58.00001,96.52097,-1.020796,0.9799718,5.430864
58.0503,92.19792,-1.073896,0.9798071,5.430864
58.10135,89.90925,-1.251936,0.9796425,5.424405
58.15035,88.38345,-1.276925,0.9798071,5.424405
58.20169,87.11198,-1.226948,0.9798071,5.424405
58.25008,86.34908,-1.373753,0.9798071,5.430864
58.30008,84.569,-1.689228,0.9798071,5.430864
58.35184,129.4525,-1.882886,0.9798071,5.424405
58.40063,145.9818,-1.979715,0.9798071,5.424405
58.45152,144.3289,-2.201484,0.9798071,5.424405
58.50038,123.3493,-2.354536,0.9798071,5.424405
58.55119,113.9403,-2.435748,0.9799718,5.424405
58.60163,110.253,-2.454489,0.9799718,5.417946
58.65121,107.5829,-2.47323,0.9799718,5.424405
58.70111,106.82,-2.498217,0.9799718,5.424405
58.75121,106.9472,-2.520082,0.9798071,5.424405
58.80083,98.42819,-2.510712,0.9799718,5.424405
58.85183,94.10515,-2.529453,0.9798071,5.430864
58.90036,92.7065,-2.604417,0.9798071,5.424405
58.9522,90.79928,-2.551317,0.9798071,5.430864
59.00068,90.41783,-2.491971,0.9798071,5.430864
59.05068,86.73053,-2.5357,0.9799718,5.430864
59.10174,90.92643,-2.648146,0.9798071,5.437324
59.15,123.4765,-2.688751,0.9799718,5.443783
59.20221,146.999,-2.679381,0.9798071,5.437324
59.25032,134.2841,-2.719987,0.9799718,5.443783
59.30008,125.7652,-2.77621,0.9798071,5.443783
59.35191,113.8132,-2.741851,0.9796425,5.443783
59.40048,111.3974,-2.66064,0.9798071,5.450242
59.45203,109.6173,-2.598169,0.9798071,5.450242
59.50043,109.6173,-2.532576,0.9799718,5.456701
59.55087,108.3458,-2.382648,0.9798071,5.456701
59.60183,99.95398,-1.923491,0.9798071,5.456701
59.65052,95.88522,-1.636128,0.9799718,5.456701
59.70148,93.85085,-1.398741,0.9798071,5.463161
59.75107,92.19792,-1.167602,0.9796425,5.463161
59.80094,91.05358,-0.9145968,0.9799718,5.463161
59.85207,88.63776,-0.8552503,0.9798071,5.469619
59.90079,87.11198,-0.8302626,0.9799718,5.469619
59.9518,113.0503,-0.7865327,0.9796425,5.463161
60.00007,146.4904,-0.6647165,0.9799718,5.469619
60.05103,137.3357,-0.6272343,0.9798071,5.469619
60.10103,124.8751,-0.5991222,0.9798071,5.463161
60.15049,116.9919,-0.552269,0.9798071,5.469619
60.20124,110.6345,-0.4804293,0.9799718,5.463161
60.25007,109.2358,-0.3898473,0.9798071,5.469619
60.30007,109.2358,-0.3086353,0.9798071,5.469619
60.35199,108.3458,-0.2524122,0.9798071,5.469619
60.40051,100.2083,-0.2211778,0.9798071,5.469619
60.45132,96.52097,-0.1743246,0.9798071,5.469619
60.50006,93.46941,-0.1087304,0.9796425,5.469619
60.55074,92.96081,-0.06812496,0.9798071,5.463161
60.6018,91.43503,0.1005445,0.9798071,5.469619
60.65007,89.90925,0.06618572,0.9798071,5.476079
60.70122,85.07759,-0.07124828,0.9798071,5.469619
60.75048,102.497,-0.2118067,0.9799718,5.469619
60.80061,143.566,-0.2430422,0.9798071,5.469619
60.8515,142.1673,-0.2711532,0.9798071,5.469619
60.90007,118.5177,-0.3429941,0.9798071,5.463161
60.95127,111.1431,-0.3804762,0.9798071,5.463161
61.00032,109.1087,-0.3992173,0.9798071,5.463161
61.05088,108.3458,-0.4460705,0.9799718,5.463161
61.10131,108.8544,-0.4960459,0.9798071,5.463161
61.15125,108.7272,-0.5179114,0.9798071,5.463161
61.20131,101.0983,-0.5116636,0.9799718,5.463161
61.25007,96.90242,-0.5304046,0.9799718,5.463161
61.30075,94.10515,-0.6084933,0.9798071,5.456701
61.35126,93.08795,-0.6772097,0.9798071,5.463161
61.40077,92.19792,-0.652222,0.9799718,5.463161
61.45202,90.41783,-0.7365562,0.9796425,5.463161
61.50048,85.96764,-0.9239679,0.9799718,5.463161
61.55027,108.2186,-1.133243,0.9799718,5.463161
61.60198,143.9474,-1.186343,0.9798071,5.456701
61.65055,143.566,-1.276925,0.9798071,5.456701
61.70147,123.2222,-1.420606,0.9798071,5.456701
61.75064,114.9575,-1.657992,0.9798071,5.463161
61.80116,108.9815,-1.72671,0.9798071,5.456701
61.85228,106.82,-1.742328,0.9798071,5.456701
61.90031,106.4386,-1.792304,0.9798071,5.456701
61.95106,105.5485,-1.848527,0.9798071,5.463161
62.00034,101.0983,-1.882886,0.9798071,5.456701
62.05014,95.24948,-1.873515,0.9798071,5.463161
62.10139,93.08795,-2.054679,0.9798071,5.463161
62.15111,91.05358,-2.270201,0.9796425,5.463161
62.20227,90.29069,-2.167125,0.9798071,5.463161
62.25089,88.7649,-2.12652,0.9798071,5.469619
62.30089,87.23911,-2.354536,0.9799718,5.469619
62.35214,87.62056,-2.520082,0.9798071,5.469619
62.40116,136.4456,-2.52633,0.9798071,5.469619
62.45138,144.2017,-2.529453,0.9798071,5.469619
62.50099,132.1226,-2.604417,0.9799718,5.469619
62.55017,125.3837,-2.685628,0.9798071,5.469619
62.60148,115.0847,-2.682505,0.9799718,5.469619
62.65059,111.1431,-2.67001,0.9798071,5.469619
62.70147,110.3802,-2.67001,0.9799718,5.469619
62.75124,110.3802,-2.666887,0.9798071,5.469619
62.80057,104.9128,-2.651269,0.9799718,5.469619
62.85223,100.7169,-2.579428,0.9798071,5.469619
62.90034,98.1739,-2.551317,0.9798071,5.476079
62.95167,93.85085,-2.532576,0.9798071,5.469619
63.00022,91.94361,-2.410759,0.9798071,5.469619
63.05006,91.43503,-1.848527,0.9799718,5.469619
63.10118,90.79928,-1.701722,0.9798071,5.469619
63.15118,90.03638,-1.604894,0.9798071,5.469619
63.20173,109.1087,-1.445594,0.9798071,5.469619
63.25113,146.7447,-1.267553,0.9798071,5.463161
63.30085,144.5831,-1.111378,0.9798071,5.463161
63.35164,127.6724,-0.96145,0.9798071,5.463161
63.40014,122.205,-0.8614969,0.9798071,5.463161
63.45114,112.5417,-0.7615451,0.9798071,5.463161
63.50075,112.6688,-0.633481,0.9798071,5.463161
63.55105,111.906,-0.5585168,0.9799718,5.463161
63.60197,110.7616,-0.4804293,0.9798071,5.463161
63.65051,101.6069,-0.3804762,0.9799718,5.463161
63.70135,97.28386,-0.2898943,0.9798071,5.463161
63.7507,94.10515,-0.2461655,0.9798071,5.463161
63.80048,92.83366,-0.2336711,0.9799718,5.456701
63.85227,91.81647,-0.196189,0.9798071,5.456701
63.90097,90.67213,-0.07437275,0.9798071,5.463161
63.9523,88.25631,-0.09936044,0.9798071,5.456701
64.00062,85.20473,-0.1930657,0.9798071,5.456701
64.05025,97.53816,-0.1805713,0.9798071,5.456701
64.1013,144.456,-0.08686601,0.9799718,5.450242
64.15076,139.2429,-0.1212248,0.9799718,5.450242
64.20187,119.662,-0.2086834,0.9798071,5.450242
64.2513,109.9987,-0.2086834,0.9799718,5.450242
64.30018,107.0743,-0.2055601,0.9798071,5.450242
64.35202,107.2015,-0.2180534,0.9798071,5.443783
64.40068,107.0743,-0.2305478,0.9799718,5.443783
64.45177,106.0571,-0.2399189,0.9799718,5.443783
64.50077,97.53816,-0.2461655,0.9798071,5.443783
64.55074,94.86804,-0.277401,0.9798071,5.443783
64.6013,92.07076,-0.3648585,0.9798071,5.443783
64.65102,90.67213,-0.4773048,0.9799718,5.443783
64.70172,91.05358,-0.4460705,0.9798071,5.443783
64.75011,88.63776,-0.5085403,0.9799718,5.443783
64.80083,84.44184,-0.6022455,0.9799718,5.443783
64.85117,101.8612,-0.7396806,0.9798071,5.443783
64.90079,143.1845,-0.7677917,0.9798071,5.437324
64.95116,140.5144,-0.8552503,0.9798071,5.437324
65.00109,120.4249,-1.092637,0.9798071,5.437324
65.05117,112.1602,-1.205084,0.9798071,5.437324
65.10112,107.2015,-1.214454,0.9799718,5.430864
65.15112,105.1671,-1.236319,0.9798071,5.430864
65.20181,103.7684,-1.26443,0.9798071,5.430864
65.251,104.9128,-1.280048,0.9798071,5.430864
65.30051,98.30104,-1.301912,0.9798071,5.430864
65.35181,95.37663,-1.320653,0.9796425,5.430864
65.40052,91.43503,-1.392494,0.9799718,5.430864
65.4521,89.5278,-1.629881,0.9798071,5.430864
65.50066,88.38345,-1.72671,0.9796425,5.424405
65.55066,86.73053,-1.554917,0.9798071,5.430864
65.60179,85.58618,-1.754822,0.9798071,5.430864
65.65016,82.40748,-2.045308,0.9798071,5.430864
65.70172,83.29751,-2.257707,0.9798071,5.430864
65.75052,143.566,-2.292066,0.9798071,5.424405
65.80025,140.7687,-2.363907,0.9799718,5.424405
65.8518,126.0195,-2.498217,0.9798071,5.424405
65.90067,120.4249,-2.52633,0.9798071,5.424405
65.95149,111.0159,-2.520082,0.9798071,5.424405
66.00066,107.9643,-2.513835,0.9799718,5.424405
66.05051,107.2015,-2.513835,0.9798071,5.424405
66.10197,106.3114,-2.516958,0.9798071,5.417946
66.1508,103.7684,-2.513835,0.9798071,5.424405
66.20214,97.28386,-2.491971,0.9798071,5.417946
66.25109,93.72369,-2.501341,0.9798071,5.417946
66.30047,91.05358,-2.52633,0.9796425,5.417946
66.35181,90.29069,-2.520082,0.9798071,5.417946
66.40066,89.40065,-2.460735,0.9798071,5.417946
66.45129,87.11198,-2.466982,0.9798071,5.417946
66.50114,84.0604,-2.510712,0.9798071,5.417946
66.55083,111.7788,-2.513835,0.9798071,5.417946
66.60185,144.9646,-2.470105,0.9796425,5.411487
66.65011,142.6759,-2.401389,0.9799718,5.411487
66.70222,123.9851,-2.317054,0.9798071,5.411487
66.75021,118.5177,-1.939109,0.9798071,5.405028
66.80084,111.0159,-1.604894,0.9799718,5.411487
66.85129,108.8544,-1.31753,0.9798071,5.405028
66.90024,108.8544,-1.164478,0.9798071,5.405028
66.95188,104.1499,-0.9395844,0.9798071,5.405028
67.00026,99.95398,-0.8146449,0.9799718,5.398569
67.05078,95.24948,-0.6709631,0.9799718,5.405028
67.1012,92.19792,-0.5866278,0.9798071,5.405028
67.15124,91.43503,-0.552269,0.9798071,5.398569
67.20201,89.14634,-0.4929225,0.9798071,5.398569
67.25121,88.7649,-0.3492408,0.9798071,5.398569
67.30112,85.84048,-0.3304997,0.9798071,5.398569
67.3517,82.15317,-0.3461174,0.9798071,5.398569
67.40108,111.0159,-0.3554885,0.9801366,5.398569
67.45222,142.9302,-0.3086353,0.9796425,5.392109
67.50099,136.5728,-0.286771,0.9798071,5.392109
67.55074,121.4421,-0.2898943,0.9799718,5.392109
67.6019,113.0503,-0.2649066,0.9798071,5.392109
67.65073,105.93,-0.2492889,0.9799718,5.392109
67.70208,104.4042,-0.2336711,0.9798071,5.392109
67.75073,105.2942,-0.1868191,0.9798071,5.392109
67.80074,106.3114,-0.0837427,0.9799718,5.385651
67.85133,98.30104,-0.05875501,0.9798071,5.392109
67.90073,94.48659,-0.0837427,0.9798071,5.385651
67.95178,91.81647,-0.1243481,0.9798071,5.385651
68.0005,89.5278,-0.2367944,0.9801366,5.385651
68.0507,88.63776,-0.25866,0.9799718,5.385651
68.10123,88.00201,-0.2461655,0.9798071,5.385651
68.15123,87.49342,-0.3148831,0.9796425,5.385651
68.20177,82.02603,-0.4741815,0.9798071,5.385651
68.25046,85.58618,-0.5553935,0.9799718,5.385651
68.30023,106.6929,-0.5991222,0.9798071,5.379191
68.35123,139.2429,-0.661592,0.9798071,5.379191
68.40123,117.6276,-0.7865327,0.9798071,5.379191
68.45126,115.0847,-0.9427089,0.9798071,5.379191
68.50096,104.7856,-1.005179,0.9798071,5.379191
68.55099,102.497,-1.052032,0.9796425,5.379191
68.6021,103.1327,-1.126996,0.9798071,5.379191
68.65053,104.4042,-1.189466,0.9799718,5.379191
68.7023,96.90242,-1.239442,0.9798071,5.372732
68.75078,93.34225,-1.248812,0.9798071,5.379191
68.80077,90.16354,-1.273801,0.9799718,5.379191
68.85178,87.62056,-1.401865,0.9799718,5.379191
68.90126,86.73053,-1.533053,0.9798071,5.379191
68.95177,86.34908,-1.479953,0.9798071,5.372732
69.00124,85.84048,-1.579905,0.9798071,5.379191
69.05025,80.88168,-1.90475,0.9799718,5.385651
69.10201,96.01237,-2.198361,0.9798071,5.379191
69.1506,107.9643,-2.285819,0.9798071,5.379191
69.20177,141.2773,-2.348289,0.9799718,5.372732
69.25131,126.0195,-2.479476,0.9799718,5.379191
69.30051,120.0435,-2.5357,0.9798071,5.379191
69.35177,111.2702,-2.523205,0.9798071,5.379191
69.40123,107.5829,-2.520082,0.9799718,5.379191
69.45123,106.3114,-2.516958,0.9799718,5.379191
69.50079,105.8028,-2.523205,0.9798071,5.379191
69.55036,102.6241,-2.520082,0.9798071,5.379191
69.60147,96.52097,-2.507589,0.9798071,5.379191
69.65103,92.57936,-2.504464,0.9799718,5.379191
69.70181,90.67213,-2.520082,0.9798071,5.385651
69.75022,89.5278,-2.523205,0.9798071,5.385651
69.80123,89.40065,-2.457612,0.9798071,5.379191
69.85204,86.73053,-2.457612,0.9799718,5.385651
69.90042,83.29751,-2.501341,0.9799718,5.385651
69.9522,94.10515,-2.551317,0.9798071,5.385651
70.00097,141.6587,-2.557564,0.9798071,5.385651
70.05104,142.8031,-2.513835,0.9799718,5.385651
70.10164,123.2222,-2.498217,0.9798071,5.379191
70.15018,121.6964,-2.441994,0.9798071,5.379191
70.20184,110.253,-2.238966,0.9798071,5.379191
70.25019,108.3458,-1.807922,0.9798071,5.379191
70.30077,108.0915,-1.508064,0.9798071,5.379191
70.35157,107.0743,-1.280048,0.9798071,5.379191
70.40019,101.3526,-1.105131,0.9798071,5.379191
70.45119,96.90242,-0.8583736,0.9798071,5.379191
70.50049,92.96081,-0.7771628,0.9798071,5.379191
70.55021,91.05358,-0.6834575,0.9798071,5.379191
70.60184,89.90925,-0.5928756,0.9798071,5.379191
70.65037,89.5278,-0.4960459,0.9798071,5.379191
70.70145,87.87486,-0.4554404,0.9798071,5.379191
70.7512,83.67896,-0.4585637,0.9798071,5.385651
70.80119,92.57936,-0.4741815,0.9798071,5.379191
70.85122,140.5144,-0.414835,0.9798071,5.379191
70.90093,140.8958,-0.3586119,0.9798071,5.379191
70.95188,123.9851,-0.3429941,0.9798071,5.379191
71.00111,115.339,-0.3148831,0.9798071,5.385651
71.05109,108.3458,-0.25866,0.9799718,5.379191
71.10193,106.4386,-0.2336711,0.9798071,5.379191
71.1502,106.0571,-0.2211778,0.9796425,5.379191
71.20222,105.93,-0.1430892,0.9798071,5.379191
71.25101,103.387,-0.07437275,0.9798071,5.385651
71.30106,97.53816,-0.04001396,0.9796425,5.379191
71.3522,93.72369,-0.07437275,0.9798071,5.379191
71.40099,91.81647,-0.2055601,0.9799718,5.385651
71.45188,90.29069,-0.2492889,0.9799718,5.385651
71.50033,89.14634,-0.2399189,0.9798071,5.385651
71.55095,88.00201,-0.3023887,0.9798071,5.385651
71.60225,84.18755,-0.4710582,0.9798071,5.379191
71.65076,90.29069,-0.5366524,0.9799718,5.385651
71.70181,131.4868,-0.5897511,0.9798071,5.379191
71.75101,137.7171,-0.6740864,0.9798071,5.379191
71.80048,117.6276,-0.7990271,0.9799718,5.379191
71.85148,110.7616,-0.9833143,0.9798071,5.379191
71.90022,105.5485,-1.052032,0.9798071,5.379191
71.95213,104.5313,-1.108255,0.9798071,5.379191
72.00081,105.93,-1.198837,0.9798071,5.379191
72.05075,106.5657,-1.26443,0.9798071,5.379191
72.10182,98.42819,-1.270677,0.9798071,5.379191
72.15031,96.90242,-1.270677,0.9799718,5.372732
72.20163,92.07076,-1.383124,0.9798071,5.379191
72.25055,90.67213,-1.561164,0.9799718,5.379191
72.30027,89.14634,-1.533053,0.9798071,5.379191
72.35208,88.00201,-1.508064,0.9798071,5.372732
72.40075,87.49342,-1.798551,0.9798071,5.379191
72.45235,85.33189,-2.051555,0.9798071,5.379191
72.501,109.1087,-2.188989,0.9798071,5.379191
72.55114,142.8031,-2.235843,0.9798071,5.372732
72.60126,133.0126,-2.351412,0.9798071,5.379191
72.65093,124.3665,-2.479476,0.9799718,5.379191
72.70218,116.1019,-2.498217,0.9798071,5.379191
72.7503,111.1431,-2.495094,0.9798071,5.379191
72.80145,110.6345,-2.495094,0.9798071,5.385651
72.85224,110.6345,-2.504464,0.9798071,5.385651
72.90075,109.4901,-2.504464,0.9799718,5.385651
72.95175,99.82683,-2.476353,0.9798071,5.392109
73.001,96.39381,-2.4826,0.9799718,5.385651
73.05128,94.99519,-2.507589,0.9798071,5.392109
73.102,92.57936,-2.495094,0.9798071,5.398569
73.15096,92.57936,-2.423253,0.9799718,5.398569
73.202,90.67213,-2.448241,0.9799718,5.398569
73.25047,86.73053,-2.501341,0.9798071,5.405028
73.30066,91.81647,-2.5357,0.9798071,5.405028
73.35191,143.6931,-2.532576,0.9796425,5.405028
73.40026,139.2429,-2.5357,0.9798071,5.405028
73.45126,127.9267,-2.585676,0.9799718,5.411487
73.5013,125.7652,-2.5357,0.9798071,5.411487
73.55079,116.4833,-2.363907,0.9798071,5.417946
73.60168,114.1946,-1.892256,0.9799718,5.417946
73.65129,113.9403,-1.579905,0.9798071,5.417946
73.70205,113.3046,-1.355012,0.9798071,5.424405
73.75121,106.3114,-1.176972,0.9798071,5.424405
73.80045,103.0055,-0.9989321,0.9798071,5.424405
73.85188,100.5897,-0.9395844,0.9798071,5.430864
73.90118,99.06393,-0.8958557,0.9798071,5.437324
73.95175,98.42819,-0.8271381,0.9798071,5.430864
74.00027,95.24948,-0.8739914,0.9799718,5.437324
74.05061,91.81647,-0.9145968,0.9798071,5.443783
74.10188,92.19792,-0.9864377,0.9798071,5.437324
74.15147,104.1499,-1.280048,0.9798071,5.443783
74.202,144.0746,-1.170725,0.9798071,5.443783
74.25134,134.5384,-1.048908,0.9798071,5.443783
74.30128,126.4009,-0.9333378,0.9798071,5.443783
74.35229,116.6105,-0.7115685,0.9796425,5.443783
74.40067,114.1946,-0.5553935,0.9798071,5.443783
74.45216,114.0675,-0.277401,0.9798071,5.443783
74.50059,115.8476,-0.05250723,0.9798071,5.443783
74.55142,109.2358,0.0255803,0.9796425,5.443783
74.60207,104.5313,0.1755087,0.9799718,5.443783
74.65074,102.2427,0.2723373,0.9798071,5.450242
74.70166,99.44539,0.2942017,0.9799718,5.450242
74.75102,98.42819,0.3379315,0.9798071,5.450242
74.80086,97.66531,0.3660426,0.9798071,5.443783
74.85161,94.99519,0.3160672,0.9798071,5.450242
74.90124,93.34225,0.2004964,0.9798071,5.450242
74.95196,135.6828,0.1036678,0.9798071,5.450242
75.00107,144.456,0.08805009,0.9798071,5.443783
75.05078,140.1329,0.03495025,0.9798071,5.443783
75.10133,126.7823,-0.04313728,0.9798071,5.443783
75.15103,122.8407,-0.01814844,0.9799718,5.443783
75.20143,114.1946,0.003715928,0.9798071,5.443783
75.25119,114.0675,-0.008778491,0.9799718,5.443783
75.30047,115.8476,-0.02751954,0.9798071,5.443783
75.35165,108.3458,-0.03064286,0.9798071,5.443783
75.40107,104.4042,-0.02751954,0.9798071,5.443783
75.45194,102.2427,-0.1181015,0.9799718,5.443783
75.50082,100.3354,-0.3992173,0.9798071,5.450242
75.55044,99.19109,-0.4366994,0.9798071,5.450242
75.60143,98.04675,-0.396094,0.9798071,5.450242
75.65145,96.90242,-0.5741345,0.9799718,5.450242
75.70217,92.19792,-0.8177682,0.9796425,5.450242
75.75071,101.4798,-0.8677447,0.9798071,5.443783
75.80116,143.9474,-0.97082,0.9798071,5.450242
75.85169,146.3632,-1.052032,0.9798071,5.450242
75.90042,135.3013,-1.176972,0.9798071,5.450242
75.95219,129.4525,-1.214454,0.9798071,5.443783
76.00119,119.2806,-1.230071,0.9798071,5.450242
76.05145,116.4833,-1.25506,0.9798071,5.450242
76.10198,116.229,-1.276925,0.9798071,5.450242
76.15145,116.229,-1.280048,0.9798071,5.450242
76.20248,109.4901,-1.276925,0.9798071,5.450242
76.25123,105.1671,-1.276925,0.9798071,5.450242
76.30122,102.6241,-1.339394,0.9798071,5.450242
76.35217,101.0983,-1.483076,0.9798071,5.450242
76.40145,100.844,-1.408112,0.9798071,5.450242
76.45193,99.69969,-1.314407,0.9798071,5.450242
76.5007,95.63092,-1.336271,0.9798071,5.450242
76.55072,92.96081,-1.351889,0.9799718,5.450242
76.60172,115.4661,-1.351889,0.9798071,5.443783
76.65098,146.4904,-1.342518,0.9798071,5.443783
76.70203,139.2429,-1.367507,0.9798071,5.443783
76.75068,136.4456,-1.439347,0.9796425,5.443783
76.80141,129.1982,-1.508064,0.9798071,5.443783
76.85143,120.4249,-1.55804,0.9798071,5.450242
76.90144,118.3905,-1.679858,0.9798071,5.450242
76.95148,118.8991,-1.761069,0.9798071,5.450242
77.00122,114.1946,-1.754822,0.9798071,5.450242
77.0512,109.2358,-1.720463,0.9798071,5.450242
77.10219,105.6757,-1.62051,0.9796425,5.450242
77.15096,104.5313,-1.592399,0.9798071,5.450242
77.20185,102.6241,-1.595522,0.9798071,5.456701
77.25049,101.4798,-1.411235,0.9798071,5.463161
77.30095,100.3354,-1.176972,0.9796425,5.456701
77.35223,96.39381,-1.126996,0.9798071,5.456701
77.40067,92.83366,-1.067649,0.9799718,5.463161
77.45141,113.0503,-0.9489555,0.9799718,5.463161
77.50146,149.7962,-0.8427559,0.9798071,5.463161
77.55094,148.7791,-0.7959039,0.9798071,5.463161
77.60137,136.1913,-0.752174,0.9799718,5.463161
77.65105,130.9782,-0.6084933,0.9798071,5.463161
77.7019,120.8064,-0.4648115,0.9798071,5.463161
77.75085,118.8991,-0.3773529,0.9798071,5.463161
77.80149,118.8991,-0.2805243,0.9798071,5.469619
77.85223,118.5177,-0.1087304,0.9798071,5.469619
77.90067,108.7272,0.1005445,0.9798071,5.469619
77.95207,107.3286,0.397278,0.9798071,5.463161
78.00146,103.6413,0.5565776,0.9798071,5.469619
78.05029,102.1155,0.6221706,0.9798071,5.469619
78.10152,101.4798,0.6971349,0.9798071,5.469619
78.15117,101.3526,0.8283222,0.9798071,5.469619
78.20222,97.66531,0.862681,0.9796425,5.469619
78.25065,93.2151,0.8533111,0.9798071,5.469619
78.30129,96.52097,0.8220756,0.9798071,5.469619
78.3523,136.0642,0.8251989,0.9798071,5.469619
78.40064,146.7447,0.7970879,0.9799718,5.469619
78.45143,131.4868,0.6908882,0.9798071,5.469619
78.50124,128.3081,0.6346651,0.9799718,5.469619
78.55038,118.5177,0.5690708,0.9798071,5.469619
78.6014,118.1362,0.5222188,0.9798071,5.469619
78.65057,117.7548,0.4722422,0.9798071,5.469619
78.70175,117.6276,0.4004013,0.9798071,5.469619
78.75132,108.3458,0.3223138,0.9798071,5.476079
78.80117,105.2942,0.2567196,0.9798071,5.476079
78.85168,103.0055,0.2004964,0.9798071,5.476079
78.90028,100.2083,0.03182693,0.9798071,5.476079
78.95158,99.44539,-0.1087304,0.9796425,5.482538
79.00082,97.9196,0.006839245,0.9798071,5.488997
79.05067,96.01237,-0.1555836,0.9799718,5.488997
79.10181,92.07076,-0.277401,0.9798071,5.495456
79.15141,93.978,-0.3898473,0.9798071,5.495456
79.20189,149.5419,-0.4273294,0.9799718,5.501915
79.25139,148.6519,-0.4773048,0.9799718,5.501915
79.30145,134.5384,-0.6116166,0.9798071,5.508374
79.35138,130.724,-0.7490506,0.9798071,5.508374
79.40139,119.2806,-0.7615451,0.9798071,5.508374
79.45144,118.3905,-0.7646683,0.9798071,5.514833
79.50092,117.6276,-0.7865327,0.9798071,5.521293
79.5508,115.7204,-0.8208915,0.9799718,5.521293
79.60204,107.71,-0.8396326,0.9798071,5.527751
79.65046,103.387,-0.8302626,0.9799718,5.521293
79.70161,100.3354,-0.8739914,0.9798071,5.527751
79.75144,98.30104,-1.008302,0.9798071,5.527751
79.8013,98.04675,-1.033291,0.9799718,5.534211
79.85188,97.28386,-0.9676966,0.9798071,5.54067
79.90041,94.48659,-1.02392,0.9798071,5.547129
79.95169,90.41783,-1.117625,0.9798071,5.54067
80.00046,91.68932,-1.167602,0.9798071,5.547129
80.05045,148.6519,-1.183219,0.9799718,5.547129
80.10162,147.1261,-1.230071,0.9798071,5.547129
80.15146,144.9646,-1.37063,0.9796425,5.553588
80.20193,133.5212,-1.492446,0.9798071,5.553588
80.25161,120.5521,-1.564287,0.9798071,5.553588
80.30116,118.1362,-1.689228,0.9799718,5.560048
80.35143,117.3734,-1.845404,0.9798071,5.553588
80.40146,116.8647,-1.917245,0.9799718,5.560048
80.45214,108.4729,-2.051555,0.9798071,5.560048
80.50108,105.1671,-2.057802,0.9798071,5.566507
80.55108,101.8612,-2.101532,0.9798071,5.572966
80.60228,99.95398,-2.235843,0.9798071,5.566507
80.65152,99.57254,-2.167125,0.9798071,5.572966
80.70148,99.19109,-1.570535,0.9798071,5.572966
80.75079,96.13953,-1.404989,0.9798071,5.572966
80.80054,91.81647,-1.358135,0.9798071,5.579425
80.85228,94.35944,-1.292542,0.9798071,5.572966
80.90104,150.1777,-1.167602,0.9798071,5.579425
80.95163,148.0162,-1.067649,0.9798071,5.579425
81.00091,136.4456,-0.9739432,0.9798071,5.579425
81.05077,135.4285,-0.8427559,0.9798071,5.579425
81.10191,123.3493,-0.7303095,0.9798071,5.579425
81.15068,120.0435,-0.633481,0.9799718,5.585885
81.20216,119.7892,-0.5022936,0.9798071,5.579425
81.25041,118.3905,-0.3492408,0.9798071,5.585885
81.30049,110.3802,-0.2898943,0.9798071,5.585885
81.35179,107.71,-0.2274245,0.9798071,5.579425
81.40128,104.0227,-0.1743246,0.9798071,5.579425
81.4522,102.8784,-0.1587069,0.9796425,5.585885
81.50103,101.0983,-0.04001396,0.9798071,5.585885
81.55065,99.06393,0.1911265,0.9799718,5.585885
81.60137,97.53816,0.2254852,0.9799718,5.585885
81.65136,94.61374,0.1942498,0.9798071,5.585885
81.70137,100.2083,0.2098675,0.9798071,5.585885
81.75153,148.0162,0.269214,0.9798071,5.579425
81.80153,148.1433,0.3129427,0.9798071,5.579425
81.85251,131.8683,0.3629192,0.9798071,5.579425
81.90089,126.4009,0.4066491,0.9798071,5.579425
81.95179,117.5005,0.3910314,0.9798071,5.579425
82.00053,114.9575,0.2973261,0.9799718,5.585885
82.05103,116.6105,0.2317319,0.9798071,5.579425
82.10171,117.3734,0.1692621,0.9798071,5.579425
82.15116,107.2015,0.13178,0.9798071,5.585885
82.20153,104.0227,0.07243235,0.9798071,5.585885
82.25112,100.9712,-0.01814844,0.9798071,5.585885
82.30104,100.844,-0.2086834,0.9799718,5.592343
82.35213,99.44539,-0.2180534,0.9798071,5.592343
82.40044,98.30104,-0.2430422,0.9798071,5.598803
82.45252,92.96081,-0.3429941,0.9798071,5.598803
82.50089,95.24948,-0.5397757,0.9798071,5.605262
82.55066,136.0642,-0.633481,0.9798071,5.605262
82.60202,150.3048,-0.6709631,0.9798071,5.598803
82.65042,136.8271,-0.770915,0.9798071,5.611721
82.70172,129.9611,-0.9583255,0.9798071,5.611721
82.75102,120.9335,-1.036414,0.9798071,5.611721
82.80152,117.7548,-1.048908,0.9798071,5.61818
82.85236,116.6105,-1.080143,0.9798071,5.61818
82.90039,115.7204,-1.108255,0.9798071,5.61818
82.95219,108.4729,-1.120748,0.9798071,5.61818
83.00069,104.0227,-1.098884,0.9798071,5.62464
83.05037,101.7341,-1.111378,0.9798071,5.62464
83.1024,100.3354,-1.208207,0.9798071,5.631098
83.1507,99.19109,-1.251936,0.9799718,5.631098
83.20169,98.1739,-1.170725,0.9798071,5.631098
83.25141,96.90242,-1.205084,0.9796425,5.637558
83.30043,92.83366,-1.351889,0.9798071,5.637558
83.35136,109.4901,-1.564287,0.9796425,5.637558
83.40144,151.4492,-1.601769,0.9798071,5.631098
83.45238,150.9406,-1.670487,0.9798071,5.637558
83.5004,139.6244,-1.795427,0.9799718,5.637558
83.55139,136.9542,-1.95785,0.9798071,5.637558
83.60188,126.7823,-1.964097,0.9798071,5.637558
83.65139,122.8407,-1.945356,0.9799718,5.637558
83.70196,120.0435,-1.939109,0.9796425,5.637558
83.75116,118.8991,-1.942232,0.9796425,5.637558
83.80116,111.6517,-1.935986,0.9798071,5.637558
83.85243,106.3114,-1.823538,0.9798071,5.637558
83.90064,103.387,-1.773563,0.9798071,5.637558
83.95164,101.0983,-1.867268,0.9798071,5.637558
84.00135,100.3354,-1.910997,0.9799718,5.637558
84.05116,98.80965,-1.576781,0.9798071,5.637558
84.1019,97.66531,-1.511187,0.9798071,5.637558
84.15039,93.72369,-1.692351,0.9798071,5.637558
84.20169,98.80965,-1.798551,0.9798071,5.637558
84.25115,140.5144,-1.670487,0.9796425,5.637558
84.30042,149.4148,-1.448717,0.9799718,5.631098
84.35168,143.6931,-1.314407,0.9798071,5.631098
84.40041,135.4285,-1.205084,0.9798071,5.631098
84.45168,123.2222,-1.080143,0.9796425,5.62464
84.50066,121.6964,-0.8989791,0.9798071,5.62464
84.55137,121.315,-0.7646683,0.9798071,5.62464
84.60145,120.1706,-0.6834575,0.9798071,5.61818
84.65137,111.906,-0.5054169,0.9798071,5.62464
84.70158,108.8544,-0.3711063,0.9798071,5.62464
84.75136,104.277,-0.286771,0.9798071,5.61818
84.80141,102.2427,-0.2399189,0.9799718,5.62464
84.85202,101.3526,-0.2211778,0.9796425,5.61818
84.90043,99.44539,-0.1337192,0.9798071,5.61818
84.95139,98.04675,0.1224089,0.9798071,5.61818
85.00114,95.75809,0.1536443,0.9798071,5.611721
85.05064,91.05358,0.1473966,0.9798071,5.61818
85.1016,91.05358,0.1661388,0.9796425,5.605262
85.15043,117.5005,0.2473496,0.9798071,5.611721
85.20165,144.7103,0.3035728,0.9799718,5.605262
85.25156,133.9027,0.3941547,0.9799718,5.605262
85.30079,127.5452,0.4816133,0.9798071,5.598803
85.35155,118.3905,0.5628242,0.9798071,5.598803
85.40128,117.7548,0.597183,0.9798071,5.592343
85.45211,117.7548,0.6065529,0.9796425,5.592343
85.5016,118.0091,0.6065529,0.9798071,5.592343
85.55093,107.8372,0.5940596,0.9798071,5.592343
85.6021,104.4042,0.5565776,0.9799718,5.585885
85.65123,103.387,0.5159709,0.9798071,5.585885
85.70222,101.0983,0.3847836,0.9796425,5.585885
85.75136,99.19109,0.1692621,0.9798071,5.579425
85.8012,96.90242,0.1411499,0.9798071,5.579425
85.85226,95.63092,0.1192856,0.9798071,5.579425
85.90086,93.72369,-0.08686601,0.9798071,5.579425
85.95238,90.29069,-0.2649066,0.9798071,5.572966
86.00068,105.93,-0.2930176,0.9798071,5.572966
86.05088,150.1777,-0.305512,0.9798071,5.572966
86.10222,134.4113,-0.3898473,0.9796425,5.572966
86.15079,129.9611,-0.5491457,0.9798071,5.566507
86.20178,119.1534,-0.6116166,0.9796425,5.566507
86.25055,115.339,-0.6209866,0.9798071,5.560048
86.3015,115.0847,-0.6490988,0.9798071,5.560048
86.35208,115.0847,-0.7053219,0.9798071,5.560048
86.40071,108.4729,-0.7552972,0.9798071,5.560048
86.45159,105.0399,-0.8115216,0.9796425,5.553588
86.50155,101.0983,-0.8240148,0.9798071,5.553588
86.55127,99.44539,-0.8208915,0.9798071,5.553588
86.60254,96.77527,-0.96145,0.9798071,5.553588
86.65104,95.75809,-1.073896,0.9798071,5.553588
86.70222,94.61374,-1.030166,0.9798071,5.547129
86.75133,93.85085,-1.02392,0.9798071,5.547129
86.80154,92.07076,-1.145737,0.9798071,5.547129
86.85239,92.57936,-1.273801,0.9798071,5.547129
86.9014,139.6244,-1.3269,0.9798071,5.54067
86.95239,152.3392,-1.336271,0.9798071,5.547129
87.00085,141.6587,-1.426853,0.9799718,5.54067
87.05106,135.3013,-1.579905,0.9798071,5.534211
87.10206,126.2737,-1.62051,0.9798071,5.534211
87.15102,119.7892,-1.598646,0.9796425,5.534211
87.20187,118.6448,-1.586152,0.9798071,5.534211
87.2505,118.1362,-1.579905,0.9799718,5.534211
87.30153,109.1087,-1.576781,0.9796425,5.527751
87.35254,106.1843,-1.570535,0.9798071,5.527751
87.40112,102.6241,-1.561164,0.9798071,5.527751
87.45239,99.69969,-1.486199,0.9798071,5.527751
87.50071,98.04675,-1.495571,0.9798071,5.527751
87.55087,96.13953,-1.554917,0.9798071,5.521293
87.60216,93.59654,-1.473705,0.9798071,5.521293
87.65092,92.19792,-1.261307,0.9796425,5.521293
87.70171,90.92643,-1.339394,0.9798071,5.521293
87.75139,87.11198,-1.508064,0.9798071,5.521293
87.80125,91.94361,-1.66424,0.9796425,5.514833
87.85216,150.0505,-1.651746,0.9798071,5.521293
87.90114,143.566,-1.648622,0.9798071,5.521293
87.95166,132.8855,-1.623635,0.9796425,5.508374
88.00166,128.181,-1.411235,0.9798071,5.514833
88.05167,118.8991,-1.208207,0.9798071,5.508374
88.10201,118.0091,-1.117625,0.9798071,5.508374
88.15097,117.3734,-0.9864377,0.9796425,5.508374
88.20219,116.6105,-0.7990271,0.9798071,5.508374
88.25066,107.5829,-0.6897042,0.9798071,5.508374
88.30067,103.387,-0.5897511,0.9798071,5.508374
88.35178,100.3354,-0.4398227,0.9798071,5.508374
88.40118,98.6825,-0.3117586,0.9798071,5.508374
88.45222,95.50377,-0.2711532,0.9798071,5.501915
88.50066,93.59654,-0.2399189,0.9798071,5.508374
88.55066,92.96081,-0.1430892,0.9798071,5.501915
88.60259,91.56216,-0.1243481,0.9798071,5.501915
88.65134,87.36626,-0.1181015,0.9798071,5.501915
88.70196,99.95398,-0.05875501,0.9799718,5.501915
88.75134,147.2533,0.08180346,0.9798071,5.495456
88.8014,148.9062,0.178632,0.9796425,5.495456
88.85239,130.0882,0.1973731,0.9799718,5.495456
88.90118,126.2737,0.2442263,0.9798071,5.495456
88.95166,116.3562,0.3566726,0.9798071,5.495456
89.00117,113.8132,0.4847367,0.9799718,5.495456
89.05138,113.5589,0.5690708,0.9798071,5.495456
89.10266,114.1946,0.5784419,0.9798071,5.495456
89.15108,107.0743,0.5659475,0.9796425,5.495456
89.20178,102.2427,0.5284654,0.9798071,5.488997
89.25134,99.19109,0.4410067,0.9798071,5.488997
89.30077,97.66531,0.3035728,0.9798071,5.488997
89.35182,95.75809,0.1473966,0.9798071,5.488997
89.40053,95.37663,0.07243235,0.9798071,5.488997
89.45258,94.10515,0.08492677,0.9799718,5.488997
89.50117,90.92643,-0.1305959,0.9798071,5.488997
89.55117,87.62056,-0.2680299,0.9798071,5.488997
89.60217,91.94361,-0.3367475,0.9796425,5.488997
89.65091,124.3665,-0.4023406,0.9798071,5.488997
89.70196,143.566,-0.5491457,0.9798071,5.488997
89.75114,126.528,-0.6303577,0.9796425,5.488997
89.80065,119.2806,-0.7178152,0.9799718,5.488997
89.85203,113.4317,-0.7584217,0.9798071,5.488997
89.90134,111.7788,-0.7959039,0.9798071,5.488997
89.95203,112.6688,-0.8458792,0.9796425,5.488997
90.00135,111.7788,-0.9395844,0.9798071,5.488997
90.05116,102.8784,-0.989561,0.9798071,5.495456
90.10223,99.57254,-0.9958088,0.9798071,5.495456
90.15125,97.66531,-1.027043,0.9796425,5.495456
90.20176,94.61374,-1.136366,0.9798071,5.501915
90.2515,93.72369,-1.183219,0.9798071,5.501915
90.30148,93.46941,-1.120748,0.9798071,5.501915
90.35259,90.54498,-1.167602,0.9798071,5.508374
90.40165,87.49342,-1.301912,0.9798071,5.501915
90.45232,91.05358,-1.489323,0.9798071,5.501915
90.50089,125.5108,-1.539299,0.9798071,5.508374
90.55158,147.3804,-1.61114,0.9798071,5.501915
90.60249,131.1054,-1.776686,0.9798071,5.501915
90.65086,127.9267,-1.932861,0.9798071,5.508374
90.70195,117.6276,-1.951602,0.9798071,5.508374
90.75048,115.7204,-1.923491,0.9799718,5.508374
90.80148,114.9575,-1.920368,0.9798071,5.508374
90.85236,113.8132,-1.923491,0.9798071,5.508374
90.90098,105.8028,-1.920368,0.9798071,5.508374
90.9521,101.6069,-1.864145,0.9798071,5.508374
91.00134,98.1739,-1.789181,0.9798071,5.508374
91.05095,96.39381,-1.882886,0.9798071,5.508374
91.10184,94.99519,-1.948479,0.9796425,5.508374
91.1506,94.48659,-1.704845,0.9798071,5.514833
91.20261,91.81647,-1.586152,0.9798071,5.508374
91.25048,88.63776,-1.751699,0.9798071,5.514833
91.30157,93.72369,-1.976591,0.9798071,5.508374
91.35262,135.3013,-2.026567,0.9798071,5.508374
91.40113,146.4904,-1.973468,0.9798071,5.508374
91.45162,139.8786,-1.879762,0.9798071,5.508374
91.50136,129.7068,-1.72671,0.9796425,5.508374
91.55111,124.6208,-1.436223,0.9799718,5.508374
91.60181,116.7376,-1.192589,0.9798071,5.508374
91.65134,115.4661,-1.098884,0.9799718,5.508374
91.70245,115.2118,-0.9364612,0.9798071,5.508374
91.75114,113.4317,-0.7584217,0.9798071,5.508374
91.80057,105.6757,-0.6428509,0.9798071,5.508374
91.85189,101.7341,-0.5179114,0.9799718,5.501915
91.90162,99.19109,-0.4117117,0.9798071,5.501915
91.9524,95.75809,-0.2961421,0.9796425,5.501915
92.00072,94.99519,-0.196189,0.9798071,5.501915
92.05089,94.10515,-0.1430892,0.9798071,5.501915
92.1016,91.43503,-0.1274714,0.9799718,5.501915
92.15162,90.54498,-0.1337192,0.9798071,5.501915
92.20157,125.2566,-0.1056071,0.9798071,5.501915
92.25139,148.2705,0.01620919,0.9796425,5.495456
92.30137,130.8511,0.06618572,0.9796425,5.495456
92.3521,127.5452,0.1224089,0.9798071,5.501915
92.40137,117.119,0.2098675,0.9798071,5.495456
92.45237,114.1946,0.2785851,0.9799718,5.495456
92.50063,114.3218,0.4004013,0.9799718,5.488997
92.55062,115.0847,0.5222188,0.9798071,5.495456
92.60269,107.3286,0.5597008,0.9796425,5.488997
92.65122,104.5313,0.5534542,0.9798071,5.495456
92.70194,101.9884,0.5003544,0.9798071,5.495456
92.75134,99.69969,0.3129427,0.9798071,5.495456
92.80093,98.80965,0.1942498,0.9798071,5.488997
92.8516,98.04675,0.2161141,0.9798071,5.488997
92.9016,94.35944,0.1099145,0.9798071,5.488997
92.95159,90.41783,-0.1118549,0.9798071,5.495456
93.00056,96.77527,-0.2305478,0.9798071,5.488997
93.0516,135.047,-0.2492889,0.9798071,5.488997
93.10159,142.5488,-0.286771,0.9798071,5.488997
93.15159,128.181,-0.3992173,0.9798071,5.482538
93.20261,123.3493,-0.552269,0.9798071,5.488997
93.25122,115.339,-0.5741345,0.9798071,5.482538
93.30086,112.796,-0.6084933,0.9798071,5.488997
93.35175,113.1774,-0.6397277,0.9798071,5.482538
93.40108,113.686,-0.6865808,0.9798071,5.482538
93.45171,104.277,-0.752174,0.9798071,5.482538
93.50146,100.9712,-0.7615451,0.9796425,5.482538
93.5513,98.30104,-0.8333859,0.9798071,5.482538
93.60248,98.04675,-1.017673,0.9798071,5.482538
93.65157,97.02956,-1.02392,0.9799718,5.488997
93.70256,96.26666,-0.989561,0.9798071,5.488997
93.75071,93.72369,-1.089514,0.9798071,5.488997
93.80175,89.65494,-1.242566,0.9798071,5.488997
93.85263,104.4042,-1.376876,0.9798071,5.488997
93.90112,149.7962,-1.461212,0.9796425,5.482538
93.95213,144.3289,-1.536176,0.9798071,5.482538
94.00156,132.6312,-1.745451,0.9798071,5.488997
94.05109,128.8167,-1.873515,0.9796425,5.482538
94.10158,118.2634,-1.898503,0.9796425,5.488997
94.15118,117.6276,-1.929738,0.9798071,5.488997
94.20248,116.6105,-2.057802,0.9796425,5.482538
94.2515,116.1019,-2.142138,0.9796425,5.482538
94.30152,104.4042,-2.188989,0.9798071,5.482538
94.35254,101.9884,-2.157755,0.9798071,5.488997
94.40158,99.57254,-2.176496,0.9796425,5.488997
94.45197,97.28386,-2.257707,0.9798071,5.488997
94.50112,96.64812,-2.270201,0.9798071,5.488997
94.55099,95.75809,-2.01095,0.9798071,5.488997
94.60213,93.2151,-2.035938,0.9798071,5.488997
94.65056,89.0192,-2.248336,0.9798071,5.482538
94.70267,120.8064,-2.317054,0.9798071,5.482538
94.75121,148.3976,-2.301436,0.9798071,5.482538
94.80121,145.4732,-2.279572,0.9798071,5.482538
94.85271,133.5212,-2.257707,0.9799718,5.482538
94.90147,130.2153,-2.110902,0.9796425,5.476079
94.9517,119.7892,-1.745451,0.9796425,5.482538
95.00171,115.9747,-1.386248,0.9798071,5.482538
95.05109,115.5933,-1.205084,0.9796425,5.476079
95.10221,115.8476,-1.058279,0.9798071,5.482538
95.15157,107.2015,-0.8864858,0.9798071,5.476079
95.20249,103.7684,-0.7115685,0.9798071,5.476079
95.25169,101.0983,-0.5928756,0.9798071,5.469619
95.30168,98.80965,-0.5022936,0.9798071,5.476079
95.35169,97.41101,-0.4023406,0.9798071,5.476079
95.40083,95.12233,-0.25866,0.9798071,5.476079
95.452,94.48659,-0.1743246,0.9798071,5.476079
95.5006,92.32506,-0.1649535,0.9798071,5.476079
95.55069,88.25631,-0.1649535,0.9796425,5.476079
95.60218,108.8544,-0.1212248,0.9798071,5.476079
95.65127,149.5419,-0.06187833,0.9798071,5.469619
95.70231,136.4456,0.03182693,0.9798071,5.469619
95.75056,129.8339,0.06618572,0.9798071,5.469619
95.80154,123.4765,0.1692621,0.9798071,5.463161
95.85197,116.229,0.2535962,0.9798071,5.463161
95.90054,114.3218,0.3223138,0.9798071,5.463161
95.95223,114.5761,0.4659956,0.9798071,5.463161
96.00149,114.7032,0.5690708,0.9798071,5.463161
96.05106,104.0227,0.6221706,0.9798071,5.463161
96.10235,100.7169,0.6284184,0.9798071,5.463161
96.15116,100.3354,0.6128007,0.9796425,5.463161
96.20249,98.42819,0.5097243,0.9796425,5.456701
96.25119,97.66531,0.3254371,0.9798071,5.456701
96.30066,96.52097,0.3098194,0.9798071,5.456701
96.35166,93.08795,0.2223619,0.9799718,5.456701
96.40166,89.0192,0.0005926116,0.9798071,5.456701
96.45156,95.75809,-0.1993123,0.9798071,5.456701
96.50167,143.1845,-0.2399189,0.9798071,5.456701
96.55163,145.0918,-0.277401,0.9798071,5.456701
96.60271,125.2566,-0.3898473,0.9798071,5.450242
96.6513,120.1706,-0.5366524,0.9796425,5.450242
96.70229,113.0503,-0.5678867,0.9798071,5.450242
96.75107,111.1431,-0.5866278,0.9798071,5.450242
96.80094,111.7788,-0.5991222,0.9798071,5.450242
96.85267,112.1602,-0.6303577,0.9798071,5.450242
96.90079,103.1327,-0.6647165,0.9798071,5.450242
96.95219,99.95398,-0.6959508,0.9798071,5.450242
97.0008,97.66531,-0.7115685,0.9799718,5.443783
97.05089,95.50377,-0.8208915,0.9798071,5.450242
97.1023,92.96081,-0.9739432,0.9799718,5.450242
97.1516,92.57936,-0.8989791,0.9798071,5.443783
97.2028,92.32506,-0.9083502,0.9796425,5.443783
97.25114,90.54498,-1.073896,0.9799718,5.443783
97.30136,89.90925,-1.198837,0.9798071,5.443783
97.35212,117.6276,-1.276925,0.9796425,5.443783
97.40136,148.5248,-1.301912,0.9799718,5.443783
97.45256,135.5556,-1.439347,0.9798071,5.443783
97.50169,127.5452,-1.642376,0.9798071,5.443783
97.55131,122.0779,-1.695474,0.9798071,5.443783
97.60236,114.3218,-1.686104,0.9799718,5.443783
97.65078,113.4317,-1.698599,0.9798071,5.443783
97.70242,113.4317,-1.736081,0.9798071,5.443783
97.75094,107.9643,-1.786056,0.9799718,5.443783
97.80141,103.0055,-1.795427,0.9798071,5.443783
97.85229,99.57254,-1.792304,0.9798071,5.443783
97.90075,98.1739,-1.907874,0.9798071,5.443783
97.95261,97.28386,-2.095284,0.9796425,5.450242
98.00131,96.64812,-1.864145,0.9798071,5.450242
98.05131,94.35944,-1.71734,0.9798071,5.450242
98.10209,90.41783,-1.96722,0.9798071,5.456701
98.15156,88.7649,-2.235843,0.9798071,5.450242
98.20203,146.7447,-2.257707,0.9798071,5.456701
98.25096,145.8546,-2.223348,0.9799718,5.456701
98.30158,133.5212,-2.192113,0.9798071,5.456701
98.35219,132.2497,-2.032815,0.9798071,5.456701
98.40144,124.748,-1.667363,0.9798071,5.456701
98.45219,118.0091,-1.298789,0.9798071,5.456701
98.50113,116.4833,-1.126996,0.9798071,5.456701
98.55112,116.6105,-0.9864377,0.9798071,5.456701
98.60233,115.0847,-0.7834094,0.9796425,5.456701
98.65168,105.6757,-0.6772097,0.9798071,5.456701
98.70192,103.0055,-0.5272813,0.9798071,5.456701
98.75127,100.7169,-0.4179583,0.9796425,5.463161
98.80082,98.80965,-0.3148831,0.9798071,5.469619
98.8521,97.66531,-0.2336711,0.9798071,5.463161
98.90154,96.26666,-0.1337192,0.9798071,5.463161
98.95261,93.85085,-0.1243481,0.9798071,5.463161
99.00135,89.90925,-0.1149782,0.9798071,5.463161
99.05109,107.5829,-0.1181015,0.9796425,5.463161
99.10184,147.7619,0.009962562,0.9796425,5.463161
99.1506,149.0334,0.07555682,0.9796425,5.456701
99.20181,129.9611,0.1130389,0.9798071,5.463161
99.2506,126.2737,0.1848798,0.9798071,5.463161
99.3016,116.9919,0.259844,0.9798071,5.463161
99.35256,116.4833,0.3722903,0.9798071,5.463161
99.40082,116.229,0.4972299,0.9798071,5.463161
99.45169,116.229,0.5534542,0.9798071,5.463161
99.50068,108.4729,0.5128477,0.9798071,5.463161
99.55107,104.5313,0.4347601,0.9796425,5.463161
99.60207,101.4798,0.3910314,0.9798071,5.456701
99.65078,100.0811,0.2254852,0.9799718,5.463161
99.70278,98.04675,0.07243235,0.9798071,5.456701
99.7506,97.79247,0.05681577,0.9798071,5.456701
99.80141,95.37663,0.03807472,0.9798071,5.456701
99.85167,91.56216,-0.1868191,0.9798071,5.456701
99.90089,88.5106,-0.2805243,0.9798071,5.456701
99.95253,128.6896,-0.3429941,0.9796425,5.456701
100.0014,146.6175,-0.414835,0.9798071,5.456701
100.0516,141.1501,-0.5647634,0.9798071,5.450242
100.1025,126.1466,-0.6366043,0.9798071,5.450242
100.1511,119.662,-0.6990741,0.9798071,5.450242
100.2021,114.4489,-0.7303095,0.9799718,5.450242
100.2508,113.4317,-0.770915,0.9798071,5.443783
100.3008,113.4317,-0.8083971,0.9798071,5.450242
100.3528,106.0571,-0.8365092,0.9796425,5.450242
100.4018,101.0983,-0.9114735,0.9798071,5.450242
100.4517,99.57254,-0.9427089,0.9798071,5.443783
100.5011,97.41101,-0.9520789,0.9796425,5.443783
100.5517,95.37663,-1.039538,0.9796425,5.443783
100.6028,94.2323,-1.120748,0.9796425,5.443783
100.6513,93.72369,-1.061402,0.9798071,5.443783
100.7019,93.08795,-1.095761,0.9796425,5.437324
100.7516,88.38345,-1.25506,0.9798071,5.443783
100.8016,91.81647,-1.436223,0.9798071,5.437324
100.852,123.7308,-1.536176,0.9799718,5.430864
100.9018,146.4904,-1.626758,0.9798071,5.437324
100.9523,135.8099,-1.77044,0.9796425,5.430864
101.0008,132.1226,-2.035938,0.9798071,5.430864
101.051,124.2394,-2.107779,0.9798071,5.430864
101.1022,117.5005,-2.104655,0.9798071,5.430864
101.1513,116.6105,-2.132766,0.9796425,5.430864
101.2022,115.8476,-2.151507,0.9798071,5.430864
101.2518,109.2358,-2.160878,0.9798071,5.424405
101.3017,103.2598,-2.185866,0.9798071,5.430864
101.3525,101.0983,-2.182743,0.9796425,5.424405
101.4012,98.80965,-2.132766,0.9798071,5.424405
101.4523,97.02956,-2.176496,0.9798071,5.424405
101.5016,94.99519,-2.217102,0.9798071,5.424405
101.5507,93.46941,-2.08279,0.9798071,5.424405
101.6018,92.19792,-1.77981,0.9798071,5.424405
101.6517,89.2735,-1.882886,0.9799718,5.424405
101.7028,88.63776,-2.129643,0.9798071,5.417946
101.7518,128.6896,-2.157755,0.9796425,5.417946
101.8016,148.1433,-1.882886,0.9798071,5.417946
101.8517,142.1673,-1.682981,0.9799718,5.417946
101.9015,132.504,-1.464335,0.9798071,5.411487
101.952,126.6552,-1.226948,0.9796425,5.411487
102.001,119.1534,-1.061402,0.9798071,5.411487
102.0507,116.7376,-0.8646203,0.9796425,5.411487
102.1018,116.229,-0.6990741,0.9799718,5.411487
102.1513,114.8304,-0.6178632,0.9796425,5.411487
102.2026,106.1843,-0.4835526,0.9796425,5.411487
102.2512,103.8956,-0.3523652,0.9796425,5.411487
102.3008,100.3354,-0.2461655,0.9798071,5.411487
102.3526,98.55534,-0.1868191,0.9799718,5.411487
102.4007,96.77527,-0.1555836,0.9798071,5.411487
102.4519,95.37663,-0.1181015,0.9798071,5.411487
102.5018,94.74089,0.0630624,0.9798071,5.411487
102.5518,91.94361,0.1630143,0.9796425,5.411487
102.6028,88.00201,0.1224089,0.9798071,5.411487
102.6509,87.62056,0.1192856,0.9798071,5.405028
102.702,125.5108,0.2098675,0.9798071,5.405028
102.7513,146.6175,0.259844,0.9798071,5.405028
102.801,128.3081,0.269214,0.9796425,5.405028
102.8521,124.748,0.3098194,0.9798071,5.405028
102.9018,115.8476,0.4378834,0.9798071,5.405028
102.9526,113.5589,0.525342,0.9798071,5.398569
103.0013,113.5589,0.5315887,0.9796425,5.405028
103.051,114.3218,0.506601,0.9798071,5.405028
103.1024,105.6757,0.4347601,0.9798071,5.405028
103.1509,104.5313,0.3223138,0.9798071,5.405028
103.2018,99.69969,0.269214,0.9798071,5.405028
103.2513,98.55534,0.2223619,0.9796425,5.405028
103.3015,96.26666,0.08180346,0.9796425,5.405028
103.3526,94.2323,-0.01502512,0.9796425,5.405028
103.4011,93.08795,0.01308588,0.9798071,5.405028
103.4525,91.18073,-0.1149782,0.9798071,5.398569
103.501,88.00201,-0.2305478,0.9796425,5.405028
103.5519,92.19792,-0.305512,0.9796425,5.405028
103.6026,141.2773,-0.3773529,0.9796425,5.398569
103.6508,144.9646,-0.4585637,0.9798071,5.398569
103.7021,125.638,-0.5553935,0.9798071,5.398569
103.7515,121.9507,-0.61474,0.9796425,5.398569
103.8015,113.4317,-0.6397277,0.9798071,5.392109
103.8524,111.0159,-0.6709631,0.9798071,5.398569
103.9009,111.5245,-0.7396806,0.9798071,5.398569
103.9525,111.1431,-0.7865327,0.9798071,5.398569
104.0019,102.8784,-0.8177682,0.9798071,5.398569
104.0511,99.95398,-0.8989791,0.9798071,5.392109
104.1023,97.02956,-0.9021024,0.9798071,5.392109
104.1508,96.64812,-0.9552022,0.9798071,5.392109
104.2019,93.72369,-1.036414,0.9798071,5.392109
104.2516,92.19792,-1.073896,0.9798071,5.392109
104.3014,91.43503,-1.008302,0.9798071,5.392109
104.3522,89.5278,-1.048908,0.9796425,5.392109
104.4008,85.33189,-1.192589,0.9799718,5.398569
104.4521,99.69969,-1.301912,0.9798071,5.392109
104.5015,143.9474,-1.348765,0.9798071,5.392109
104.5515,144.9646,-1.414358,0.9798071,5.392109
104.6028,129.1982,-1.601769,0.9798071,5.385651
104.6516,126.7823,-1.736081,0.9798071,5.385651
104.7027,117.7548,-1.754822,0.9798071,5.385651
104.7513,115.2118,-1.767315,0.9798071,5.385651
104.8011,115.4661,-1.801674,0.9798071,5.385651
104.8521,114.1946,-1.864145,0.9798071,5.385651
104.9008,105.2942,-1.889133,0.9798071,5.385651
104.9519,100.3354,-1.898503,0.9796425,5.385651
105.001,97.28386,-1.892256,0.9796425,5.385651
105.0509,95.75809,-1.895379,0.9798071,5.385651
105.1021,92.96081,-2.032815,0.9796425,5.392109
105.1508,92.19792,-2.023443,0.9798071,5.392109
105.202,91.18073,-1.667363,0.9798071,5.392109
105.2519,89.90925,-1.698599,0.9798071,5.392109
105.301,85.71333,-1.898503,0.9796425,5.392109
105.3521,105.0399,-2.12652,0.9798071,5.392109
105.4012,145.2189,-2.070297,0.9796425,5.392109
105.4526,143.3117,-1.935986,0.9799718,5.392109
105.501,129.1982,-1.842279,0.9798071,5.392109
105.5509,127.4181,-1.639251,0.9798071,5.392109
105.6023,118.2634,-1.31753,0.9798071,5.392109
105.6511,114.8304,-1.142613,0.9798071,5.392109
105.7022,113.4317,-1.011425,0.9798071,5.392109
105.7507,113.0503,-0.8083971,0.9798071,5.385651
105.8012,106.0571,-0.6834575,0.9796425,5.392109
105.8529,101.8612,-0.5678867,0.9799718,5.385651
105.9011,98.9368,-0.433576,0.9799718,5.385651
105.9522,96.64812,-0.3023887,0.9798071,5.392109
106.0018,94.99519,-0.2492889,0.9798071,5.392109
106.0519,93.85085,-0.1868191,0.9798071,5.392109
106.1028,93.46941,-0.09936044,0.9798071,5.392109
106.1509,91.68932,-0.0931138,0.9798071,5.392109
106.2028,85.96764,-0.08686601,0.9798071,5.392109
106.2514,91.56216,-0.01814844,0.9798071,5.385651
106.3011,134.6656,0.1067911,0.9798071,5.385651
106.3519,146.4904,0.1817553,0.9796425,5.385651
106.4013,124.4937,0.2067442,0.9798071,5.385651
106.4526,121.4421,0.259844,0.9798071,5.379191
106.5012,113.9403,0.369167,0.9796425,5.385651
106.5513,113.1774,0.5097243,0.9798071,5.385651
106.602,113.5589,0.5909363,0.9796425,5.385651
106.6515,112.0331,0.6284184,0.9798071,5.385651
106.7021,104.6585,0.6346651,0.9798071,5.385651
106.7515,101.2255,0.6221706,0.9798071,5.385651
106.8011,98.42819,0.5940596,0.9796425,5.379191
106.8523,96.52097,0.4972299,0.9798071,5.379191
106.9011,95.12233,0.3348082,0.9798071,5.385651
106.9521,94.35944,0.3254371,0.9796425,5.385651
107.0016,91.30788,0.2317319,0.9798071,5.385651
107.0514,87.36626,0.04432135,0.9796425,5.385651
107.1026,87.62056,-0.1587069,0.9798071,5.379191
107.1511,93.34225,-0.1836946,0.9798071,5.379191
107.2019,141.2773,-0.2367944,0.9798071,5.379191
107.2513,126.2737,-0.286771,0.9798071,5.379191
107.3012,119.7892,-0.3711063,0.9798071,5.379191
107.3525,111.5245,-0.4304527,0.9798071,5.379191
107.401,108.8544,-0.5085403,0.9798071,5.379191
107.4519,110.6345,-0.5428991,0.9798071,5.379191
107.5014,111.2702,-0.5678867,0.9798071,5.379191
107.5513,103.7684,-0.5835045,0.9796425,5.372732
107.6023,99.69969,-0.5772578,0.9796425,5.372732
107.6515,96.64812,-0.5897511,0.9798071,5.379191
107.7026,95.37663,-0.661592,0.9798071,5.372732
107.7512,93.978,-0.7865327,0.9798071,5.372732
107.8013,93.46941,-0.7552972,0.9798071,5.372732
107.8525,91.94361,-0.7646683,0.9798071,5.372732
107.9013,89.5278,-0.9239679,0.9798071,5.372732
107.9525,88.00201,-1.064525,0.9798071,5.379191
108.0013,135.3013,-1.133243,0.9798071,5.372732
108.051,146.8718,-1.155107,0.9798071,5.372732
108.1023,136.3185,-1.233195,0.9799718,5.372732
108.151,130.9782,-1.348765,0.9796425,5.372732
108.202,119.9163,-1.417482,0.9796425,5.372732
108.2515,116.6105,-1.417482,0.9798071,5.372732
108.3016,115.5933,-1.448717,0.9798071,5.372732
108.352,114.8304,-1.523682,0.9798071,5.366273
108.4017,108.2186,-1.623635,0.9798071,5.372732
108.4521,102.7513,-1.633005,0.9798071,5.366273
108.5015,101.2255,-1.626758,0.9798071,5.366273
108.5514,97.28386,-1.654869,0.9798071,5.366273
108.602,97.02956,-1.789181,0.9798071,5.372732
108.6517,96.13953,-1.764192,0.9799718,5.372732
108.7022,95.12233,-1.617387,0.9798071,5.366273
108.751,91.56216,-1.748574,0.9798071,5.366273
108.8008,88.00201,-2.07342,0.9798071,5.366273
108.853,125.5108,-2.210854,0.9799718,5.372732
108.9016,147.3804,-2.188989,0.9798071,5.366273
108.9528,144.9646,-2.195237,0.9796425,5.366273
109.0015,131.8683,-2.217102,0.9798071,5.366273
109.0509,128.8167,-2.198361,0.9798071,5.366273
109.1021,119.4077,-2.023443,0.9796425,5.366273
109.1518,118.6448,-1.77044,0.9798071,5.366273
109.2019,117.6276,-1.545546,0.9798071,5.359814
109.2518,116.8647,-1.295666,0.9799718,5.359814
109.3009,106.0571,-1.130119,0.9798071,5.366273
109.3518,103.5141,-0.96145,0.9796425,5.359814
109.401,101.7341,-0.7834094,0.9798071,5.359814
109.4526,99.44539,-0.6928275,0.9798071,5.359814
109.5015,98.1739,-0.5928756,0.9798071,5.359814
109.5511,96.64812,-0.396094,0.9799718,5.366273
109.602,94.99519,-0.2992654,0.9798071,5.359814
109.6513,90.79928,-0.2742765,0.9796425,5.359814
109.7025,102.2427,-0.2711532,0.9799718,5.359814
109.7509,146.7447,-0.2180534,0.9798071,5.359814
109.8018,147.5076,-0.177448,0.9798071,5.359814
109.8526,134.0298,-0.1587069,0.9798071,5.359814
109.9009,128.9439,-0.1368425,0.9798071,5.353354
109.952,120.2978,-0.08686601,0.9798071,5.353354
110.0019,116.3562,0.05681577,0.9798071,5.359814
110.0517,116.3562,0.159891,0.9796425,5.353354
110.1026,116.7376,0.241103,0.9798071,5.359814
110.1514,108.9815,0.3223138,0.9796425,5.353354
110.2025,106.1843,0.4566245,0.9798071,5.359814
110.2517,101.8612,0.5690708,0.9798071,5.353354
110.3014,100.5897,0.5909363,0.9798071,5.359814
110.3524,98.9368,0.5846885,0.9796425,5.359814
110.4011,98.6825,0.6128007,0.9796425,5.359814
110.4528,96.13953,0.6128007,0.9799718,5.359814
110.502,91.94361,0.4316368,0.9796425,5.359814
110.552,90.41783,0.2129908,0.9798071,5.366273
110.6029,127.7995,0.1349033,0.9798071,5.366273
110.652,146.8718,0.05681577,0.9798071,5.366273
110.7026,135.5556,-0.09623712,0.9798071,5.366273
110.7509,124.2394,-0.1743246,0.9798071,5.366273
110.8015,117.6276,-0.2086834,0.9799718,5.366273
110.8528,114.1946,-0.2274245,0.9798071,5.366273
110.9013,113.5589,-0.2461655,0.9798071,5.366273
110.9525,114.4489,-0.2617833,0.9796425,5.366273
111.0013,114.3218,-0.286771,0.9798071,5.359814
111.0511,102.6241,-0.2930176,0.9798071,5.366273
111.102,100.4626,-0.305512,0.9798071,5.366273
111.1519,98.9368,-0.4023406,0.9798071,5.366273
111.203,97.66531,-0.5210347,0.9799718,5.366273
111.2514,96.64812,-0.4929225,0.9799718,5.366273
111.301,94.99519,-0.4960459,0.9798071,5.366273
111.3521,91.94361,-0.5959989,0.9796425,5.366273
111.402,90.54498,-0.7303095,0.9798071,5.366273
111.4523,124.4937,-0.8958557,0.9798071,5.366273
111.5011,149.1605,-0.9302145,0.9798071,5.366273
111.5513,143.4388,-1.01455,0.9796425,5.366273
111.602,130.8511,-1.133243,0.9798071,5.372732
111.6519,124.1122,-1.145737,0.9798071,5.366273
111.7025,118.772,-1.167602,0.9798071,5.372732
111.7511,115.2118,-1.20196,0.9798071,5.372732
111.8011,114.9575,-1.223825,0.9798071,5.372732
111.852,110.7616,-1.251936,0.9799718,5.379191
111.9016,103.8956,-1.251936,0.9798071,5.379191
111.9529,101.2255,-1.261307,0.9798071,5.385651
112.0016,98.55534,-1.383124,0.9799718,5.385651
112.0518,97.9196,-1.498694,0.9798071,5.392109
112.1029,95.88522,-1.373753,0.9798071,5.392109
112.1511,94.99519,-1.373753,0.9798071,5.398569
112.202,91.56216,-1.617387,0.9798071,5.405028
112.2508,95.50377,-1.817292,0.9798071,5.405028
112.3014,127.5452,-1.889133,0.9798071,5.405028
112.3525,146.999,-1.90475,0.9798071,5.411487
112.401,135.1741,-2.051555,0.9798071,5.411487
112.4524,133.9027,-2.195237,0.9798071,5.411487
112.5009,126.9095,-2.185866,0.9799718,5.417946
112.552,119.7892,-2.148384,0.9796425,5.417946
112.602,117.7548,-2.110902,0.9798071,5.424405
112.6515,116.229,-2.02032,0.9798071,5.417946
112.7024,111.906,-1.876638,0.9798071,5.424405
112.7514,105.0399,-1.686104,0.9796425,5.424405
112.8014,101.9884,-1.483076,0.9798071,5.430864
112.852,99.31824,-1.345642,0.9798071,5.430864
112.9012,97.02956,-1.192589,0.9798071,5.430864
112.952,95.88522,-0.9739432,0.9796425,5.437324
113.002,94.61374,-0.8052738,0.9798071,5.430864
113.051,91.18073,-0.742804,0.9798071,5.437324
113.1026,97.41101,-0.6990741,0.9798071,5.437324
113.151,106.82,-0.6209866,0.9798071,5.437324
113.2018,137.9714,-0.4929225,0.9798071,5.437324
113.2512,138.6072,-0.4460705,0.9798071,5.437324
113.3013,130.0882,-0.396094,0.9798071,5.443783
113.3526,119.7892,-0.2742765,0.9798071,5.437324
113.401,118.2634,-0.2149301,0.9798071,5.443783
113.4529,117.8819,-0.1555836,0.9798071,5.443783
113.5012,117.8819,-0.1118549,0.9798071,5.443783
113.5512,111.906,-0.0462606,0.9798071,5.443783
113.6023,107.71,0.1473966,0.9796425,5.443783
113.6508,104.1499,0.2223619,0.9799718,5.443783
113.7018,102.8784,0.2473496,0.9798071,5.443783
113.7511,102.497,0.3035728,0.9798071,5.443783
113.8016,101.6069,0.525342,0.9796425,5.443783
113.8525,96.52097,0.525342,0.9798071,5.443783
113.902,94.2323,0.4066491,0.9798071,5.450242
113.952,99.69969,0.3597959,0.9798071,5.443783
114.0015,138.8615,0.3941547,0.9798071,5.443783
114.0512,143.6931,0.3254371,0.9798071,5.443783
114.102,128.4353,0.2348552,0.9796425,5.437324
114.1509,127.0366,0.1723854,0.9798071,5.437324
114.203,117.119,0.13178,0.9798071,5.437324
114.2517,115.4661,0.07868014,0.9798071,5.443783
114.3009,117.119,0.02870361,0.9798071,5.437324
114.352,118.2634,-0.02751954,0.9798071,5.437324
114.4013,108.0915,-0.09623712,0.9798071,5.437324
114.4523,105.6757,-0.1056071,0.9798071,5.437324
114.5018,103.5141,-0.177448,0.9798071,5.437324
114.5511,102.497,-0.2367944,0.9796425,5.437324
114.6027,101.8612,-0.2274245,0.9796425,5.430864
114.6515,99.19109,-0.2617833,0.9798071,5.437324
114.7027,94.86804,-0.3804762,0.9798071,5.430864
114.751,94.74089,-0.5304046,0.9798071,5.437324
114.801,130.4697,-0.5647634,0.9798071,5.430864
114.8519,147.6347,-0.5959989,0.9799718,5.430864
114.9009,133.3941,-0.7178152,0.9798071,5.430864
114.9527,131.614,-0.9427089,0.9798071,5.430864
115.001,120.2978,-0.9645733,0.9798071,5.430864
115.0513,119.4077,-0.9801911,0.9798071,5.424405
115.1022,117.7548,-1.01455,0.9798071,5.424405
115.1511,116.9919,-1.052032,0.9796425,5.424405
115.202,109.363,-1.045784,0.9798071,5.424405
115.2517,105.6757,-1.030166,0.9798071,5.424405
115.3014,102.2427,-1.089514,0.9798071,5.424405
115.3523,101.6069,-1.164478,0.9798071,5.430864
115.4017,100.7169,-1.133243,0.9798071,5.424405
115.4528,99.57254,-1.098884,0.9798071,5.430864
115.5009,94.99519,-1.198837,0.9798071,5.430864
115.5515,98.80965,-1.358135,0.9796425,5.430864
115.6028,119.0263,-1.454964,0.9798071,5.437324
115.6512,149.9234,-1.508064,0.9798071,5.430864
115.7027,143.0574,-1.633005,0.9798071,5.437324
115.752,139.3701,-1.761069,0.9796425,5.437324
115.8015,132.7583,-1.832909,0.9798071,5.437324
115.8527,123.2222,-1.814168,0.9798071,5.437324
115.9012,121.4421,-1.801674,0.9796425,5.443783
115.9529,121.315,-1.801674,0.9799718,5.437324
116.0014,115.5933,-1.789181,0.9798071,5.443783
116.0515,110.7616,-1.686104,0.9798071,5.443783
116.103,107.3286,-1.701722,0.9796425,5.450242
116.1518,105.6757,-1.786056,0.9798071,5.450242
116.2027,104.9128,-1.648622,0.9798071,5.450242
116.2516,103.7684,-1.267553,0.9798071,5.450242
116.3012,99.57254,-1.258183,0.9798071,5.456701
116.3531,96.90242,-1.217578,0.9798071,5.456701
116.4017,128.8167,-1.136366,0.9798071,5.450242
116.4528,151.8306,-0.9864377,0.9799718,5.456701
116.5013,148.6519,-0.870868,0.9798071,5.456701
116.5509,141.023,-0.7584217,0.9798071,5.456701
116.602,136.9542,-0.6740864,0.9798071,5.456701
116.6516,125.2566,-0.5460224,0.9798071,5.456701
116.7023,122.0779,-0.4398227,0.9796425,5.456701
116.7515,122.4593,-0.3117586,0.9796425,5.450242
116.8012,117.8819,-0.2243012,0.9796425,5.456701
116.8526,112.6688,-0.1430892,0.9798071,5.456701
116.9012,109.7444,-0.0931138,0.9798071,5.456701
116.9525,108.6001,-0.07749607,0.9798071,5.456701
117.0012,105.8028,0.05993908,0.9798071,5.456701
117.0515,104.4042,0.241103,0.9798071,5.456701
117.1028,103.1327,0.3129427,0.9798071,5.456701
117.1512,101.6069,0.2848317,0.9798071,5.456701
117.2029,98.80965,0.2629673,0.9798071,5.456701
117.2512,130.724,0.2910783,0.9798071,5.456701
117.3019,152.7207,0.3285604,0.9799718,5.456701
117.3519,141.1501,0.3223138,0.9796425,5.456701
117.4021,136.5728,0.3316838,0.9798071,5.456701
117.4529,123.6036,0.3879081,0.9798071,5.450242
117.5019,120.1706,0.3847836,0.9798071,5.456701
117.5514,122.205,0.3441782,0.9798071,5.456701
117.6022,123.4765,0.3066961,0.9796425,5.450242
117.6518,113.0503,0.259844,0.9798071,5.456701
117.7029,108.9815,0.2348552,0.9796425,5.456701
117.7513,106.4386,0.1661388,0.9798071,5.456701
117.8014,104.4042,0.02870361,0.9796425,5.456701
117.8522,103.0055,-0.1149782,0.9798071,5.456701
117.9016,101.6069,-0.0931138,0.9798071,5.456701
117.9521,99.69969,-0.177448,0.9798071,5.456701
118.002,94.74089,-0.2711532,0.9799718,5.463161
118.0509,99.57254,-0.4054651,0.9798071,5.456701
118.1022,139.4972,-0.4804293,0.9798071,5.450242
118.1518,151.1949,-0.5366524,0.9798071,5.456701
118.2027,135.1741,-0.61474,0.9798071,5.450242
118.2515,129.1982,-0.7115685,0.9798071,5.450242
118.3021,120.2978,-0.770915,0.9798071,5.450242
118.3519,118.1362,-0.8614969,0.9796425,5.450242
118.4013,118.2634,-0.9364612,0.9798071,5.450242
118.452,117.7548,-0.9739432,0.9798071,5.450242
118.5017,108.8544,-0.9801911,0.9798071,5.450242
118.5514,104.9128,-0.9864377,0.9799718,5.450242
118.6029,103.0055,-0.9926843,0.9798071,5.450242
118.6517,101.0983,-1.08639,0.9798071,5.450242
118.702,100.0811,-1.130119,0.9799718,5.443783
118.7516,99.69969,-1.073896,0.9798071,5.443783
118.8012,97.79247,-1.061402,0.9798071,5.450242
118.8525,92.32506,-1.186343,0.9798071,5.450242
118.9012,99.57254,-1.305036,0.9798071,5.443783
118.9521,146.999,-1.38,0.9798071,5.443783
119.002,150.9406,-1.398741,0.9796425,5.437324
119.0512,145.7275,-1.55804,0.9798071,5.437324
119.1024,139.8786,-1.714215,0.9798071,5.437324
119.152,133.6484,-1.720463,0.9796425,5.430864
119.2022,121.8235,-1.714215,0.9796425,5.430864
119.252,120.6792,-1.720463,0.9799718,5.430864
119.302,119.2806,-1.720463,0.9798071,5.430864
119.3519,109.4901,-1.72671,0.9796425,5.430864
119.4016,108.3458,-1.739204,0.9798071,5.430864
119.4527,104.5313,-1.732958,0.9798071,5.430864
119.5018,103.1327,-1.736081,0.9798071,5.424405
119.5518,101.0983,-1.807922,0.9798071,5.424405
119.6026,98.9368,-1.786056,0.9796425,5.424405
119.651,97.41101,-1.398741,0.9796425,5.424405
119.702,96.26666,-1.298789,0.9798071,5.424405
119.7517,90.67213,-1.295666,0.9796425,5.424405
119.8015,112.6688,-1.223825,0.9798071,5.417946
119.8525,151.4492,-1.064525,0.9798071,5.417946
119.9012,150.0505,-0.9302145,0.9798071,5.417946
119.9525,138.48,-0.8240148,0.9799718,5.417946
120.002,135.937,-0.7053219,0.9798071,5.417946
120.0519,123.3493,-0.5959989,0.9798071,5.411487
120.1027,121.0607,-0.4741815,0.9796425,5.411487
120.1515,120.1706,-0.3586119,0.9796425,5.411487
120.2024,119.7892,-0.2399189,0.9798071,5.411487
120.251,109.6173,-0.1899424,0.9798071,5.405028
120.3017,106.4386,-0.1118549,0.9798071,5.411487
120.3529,104.1499,-0.06187833,0.9798071,5.405028
120.4016,101.6069,0.06618572,0.9796425,5.405028
120.4524,99.57254,0.1192856,0.9799718,5.411487
120.5013,97.66531,0.2004964,0.9796425,5.405028
120.5512,96.26666,0.3379315,0.9798071,5.405028
120.6029,94.2323,0.378537,0.9796425,5.405028
120.6516,89.90925,0.3348082,0.9798071,5.405028
120.7023,98.80965,0.3129427,0.9798071,5.405028
120.7509,148.0162,0.3441782,0.9798071,5.405028
120.8021,149.9234,0.3535493,0.9798071,5.398569
120.8528,130.3425,0.3410549,0.9798071,5.398569
120.9016,127.7995,0.3285604,0.9799718,5.398569
120.9524,117.3734,0.3160672,0.9798071,5.398569
121.0019,115.2118,0.2817084,0.9798071,5.398569
121.0518,114.9575,0.2504729,0.9799718,5.392109
121.1026,115.0847,0.2067442,0.9798071,5.398569
121.1521,112.6688,0.159891,0.9798071,5.392109
121.2024,103.1327,0.08492677,0.9798071,5.398569
121.2511,100.844,0.06618572,0.9798071,5.392109
121.3014,97.66531,-0.01814844,0.9798071,5.392109
121.3521,97.41101,-0.1399659,0.9798071,5.392109
121.4016,95.75809,-0.1555836,0.9796425,5.392109
121.4521,94.99519,-0.1274714,0.9798071,5.392109
121.5021,91.56216,-0.1930657,0.9798071,5.392109
121.5516,87.49342,-0.2711532,0.9798071,5.392109
121.6028,93.46941,-0.4085884,0.9796425,5.392109
121.6513,138.2257,-0.4523171,0.9799718,5.392109
121.7029,149.2876,-0.4991703,0.9798071,5.392109
121.7516,132.8855,-0.5835045,0.9798071,5.385651
121.8014,127.0366,-0.6834575,0.9798071,5.385651
121.8521,116.9919,-0.7365562,0.9798071,5.385651
121.9018,113.9403,-0.8115216,0.9799718,5.385651
121.9529,113.4317,-0.9083502,0.9798071,5.385651
122.0013,113.9403,-0.96145,0.9796425,5.385651
122.052,104.7856,-0.9739432,0.9798071,5.385651
122.102,102.3698,-1.008302,0.9798071,5.385651
122.1517,99.82683,-1.01455,0.9796425,5.385651
122.2025,98.42819,-1.073896,0.9796425,5.379191
122.2514,95.12233,-1.133243,0.9799718,5.385651
122.3014,93.85085,-1.15823,0.9799718,5.379191
122.3527,93.08795,-1.089514,0.9798071,5.379191
122.4015,92.32506,-1.14886,0.9798071,5.379191
122.4521,87.49342,-1.323777,0.9798071,5.379191
122.5017,93.08795,-1.483076,0.9798071,5.379191
122.5509,152.3392,-1.517435,0.9796425,5.379191
122.6021,148.7791,-1.626758,0.9798071,5.379191
122.6522,134.4113,-1.751699,0.9799718,5.379191
122.7029,131.614,-1.867268,0.9798071,5.372732
122.7512,119.7892,-1.864145,0.9798071,5.372732
122.801,117.8819,-1.857897,0.9798071,5.366273
122.8531,117.5005,-1.867268,0.9798071,5.372732
122.9012,116.9919,-1.867268,0.9796425,5.372732
122.9522,106.5657,-1.867268,0.9798071,5.372732
123.002,101.0983,-1.870392,0.9796425,5.372732
123.0519,98.80965,-1.807922,0.9798071,5.372732
123.1031,96.90242,-1.745451,0.9798071,5.366273
123.1519,95.50377,-1.757945,0.9799718,5.372732
123.202,94.61374,-1.654869,0.9798071,5.366273
123.252,93.34225,-1.233195,0.9798071,5.372732
123.302,90.79928,-1.139489,0.9799718,5.366273
123.353,87.23911,-1.105131,0.9798071,5.366273
123.4014,103.1327,-1.033291,0.9798071,5.366273
123.4524,149.1605,-0.9083502,0.9798071,5.366273
123.5012,147.6347,-0.7459273,0.9798071,5.359814
123.5521,130.724,-0.6772097,0.9798071,5.359814
123.6032,127.2909,-0.5866278,0.9798071,5.359814
123.652,118.5177,-0.4710582,0.9799718,5.353354
123.7029,114.3218,-0.3523652,0.9798071,5.359814
123.7514,113.4317,-0.2430422,0.9798071,5.359814
123.8011,113.8132,-0.1930657,0.9798071,5.353354
123.8528,106.82,-0.1430892,0.9798071,5.353354
123.9022,102.3698,-0.0837427,0.9798071,5.353354
123.9529,98.42819,-0.03376618,0.9798071,5.359814
124.0014,96.90242,0.09742119,0.9798071,5.353354
124.0522,94.86804,0.1411499,0.9798071,5.359814
124.1023,94.2323,0.2129908,0.9796425,5.353354
124.152,93.72369,0.3285604,0.9798071,5.353354
124.2032,91.43503,0.3566726,0.9796425,5.353354
124.2521,87.23911,0.3316838,0.9799718,5.353354
124.302,90.03638,0.2848317,0.9798071,5.353354
124.352,134.2841,0.3035728,0.9798071,5.346895
124.4016,148.2705,0.3035728,0.9798071,5.346895
124.4524,125.638,0.259844,0.9799718,5.346895
124.501,121.4421,0.2161141,0.9798071,5.346895
124.552,113.1774,0.2098675,0.9798071,5.346895
124.603,111.0159,0.1848798,0.9799718,5.346895
124.6512,111.0159,0.13178,0.9798071,5.340436
124.7031,111.906,0.08805009,0.9796425,5.340436
