t_sec,abp_mmHg,resp_arbunit,spo2_unitless,scon_muS
0,0.3966055,0.09319963,0.9699246,0.8900725
0.0499906,0.5237532,0.017135,0.9699246,0.8836133
0.1006233,0.5237532,-0.004596607,0.9699246,0.8771542
0.149522,0.3966055,-0.1023928,0.9699246,0.8642358
0.1994846,0.3966055,-0.2436603,0.9699246,0.7867259
0.2507611,0.6509008,-0.3523263,0.9699246,0.8319401
0.298958,0.5237532,-0.3197249,0.9697599,0.8706951
0.3501664,0.5237532,-0.4501226,0.9700893,0.8642358
0.3991647,0.5237532,-0.5261872,0.9699246,0.8706951
0.4492718,0.5237532,-0.6457151,0.9699246,0.8642358
0.500353,0.6509008,-0.7761127,0.9699246,0.8706951
0.5491643,0.5237532,-0.8521773,0.9699246,0.8771542
0.6005205,0.3966055,-0.92825,0.9697599,0.8771542
0.6490136,0.5237532,-0.9825749,0.9699246,0.8965316
0.6991621,0.5237532,-0.9934448,0.9699246,0.9159091
0.7506617,0.5237532,-1.047778,0.9699246,0.9029908
0.7993011,0.5237532,-1.145574,0.9699246,0.8965316
0.8499697,0.5237532,-1.178175,0.9699246,0.8836133
0.8998764,0.5237532,-1.178175,0.9699246,0.8836133
0.9498534,0.5237532,-1.210777,0.9699246,0.8642358
0.9998084,0.5237532,-1.221639,0.9699246,0.8061033
1.04987,0.6509008,-1.221639,0.9699246,0.8125626
1.100616,0.6509008,-1.134712,0.9699246,0.8577767
1.148862,0.5237532,-1.167306,0.9699246,0.8642358
1.199987,0.5237532,-1.091241,0.9699246,0.8642358
1.250159,0.5237532,-0.9391118,0.9697599,0.8706951
1.299875,0.5237532,-0.6457151,0.9697599,0.8706951
1.350872,0.5237532,-0.3849197,0.9699246,0.8836133
1.399659,0.5237532,-0.2871235,0.9699246,0.9029908
1.449485,0.5237532,-0.1784575,0.9699246,0.90945
1.499855,0.5237532,0.006273206,0.9699246,0.9029908
1.549659,0.5237532,0.1584025,0.9699246,0.8965316
1.60085,0.5237532,0.2888001,0.9700893,0.8836133
1.648981,0.5237532,0.3539949,0.9699246,0.8836133
1.699338,0.3966055,0.4843926,0.9699246,0.8642358
1.750293,0.3966055,0.571327,0.9700893,0.7996442
1.799008,0.5237532,0.5061322,0.9697599,0.8254809
1.850657,0.3966055,0.5604652,0.9697599,0.8642358
1.898871,0.5237532,0.7125944,0.9699246,0.8642358
1.949586,0.3966055,0.7560577,0.9699246,0.8642358
2.000865,0.3966055,0.8429921,0.9697599,0.8577767
2.048858,0.5237532,0.8864553,0.9699246,0.8771542
2.100623,0.6509008,1.016853,0.9699246,0.8706951
2.14928,0.5237532,1.049454,0.9699246,0.8836133
2.199386,0.5237532,1.038585,0.9699246,0.8836133
2.250636,0.5237532,1.071186,0.9697599,0.8965316
2.299723,0.5237532,1.15812,0.9699246,0.90945
2.350464,0.3966055,1.190714,0.9699246,0.8965316
2.399979,0.6509008,1.103787,0.9699246,0.8900725
2.449282,0.3966055,1.005991,0.9699246,0.8900725
2.500611,0.5237532,0.9299185,0.9699246,0.8706951
2.549281,0.5237532,0.8973252,0.9699246,0.8577767
2.600003,0.5237532,0.8429921,0.9699246,0.793185
2.648889,0.5237532,0.7995209,0.9699246,0.8319401
2.698829,0.3966055,0.7886591,0.9699246,0.8706951
2.751002,0.3966055,0.7669275,0.9700893,0.8577767
2.799356,0.3966055,0.6039284,0.9697599,0.8642358
2.85068,0.6509008,0.5278638,0.9697599,0.8577767
2.899076,0.5237532,0.5387256,0.9699246,0.8642358
2.949783,0.6509008,0.4409294,0.9699246,0.8706951
3.000466,0.3966055,0.3322633,0.9699246,0.8771542
3.049279,0.5237532,0.2344671,0.9697599,0.8771542
3.100581,0.5237532,0.1692643,0.9699246,0.8771542
3.14973,0.5237532,0.006273206,0.9699246,0.9029908
3.199476,0.5237532,-0.09153105,0.9699246,0.9029908
3.250275,0.6509008,-0.1567259,0.9699246,0.8965316
3.298952,0.6509008,-0.1349943,0.9699246,0.8965316
3.350975,0.6509008,-0.1784575,0.9699246,0.8771542
3.399352,0.6509008,-0.3740579,0.9699246,0.8771542
3.449224,0.7780523,-0.482724,0.9699246,0.8577767
3.500693,0.5237532,-0.5479188,0.9699246,0.793185
3.549497,0.3966055,-0.6239834,0.9699246,0.8254809
3.600756,0.5237532,-0.700048,0.9699246,0.8577767
3.649503,0.7780523,-0.8195839,0.9699246,0.8642358
3.69975,0.7780523,-0.7978523,0.9699246,0.8577767
3.750481,0.6509008,-1.015176,0.9700893,0.8642358
3.799017,0.5237532,-1.221639,0.9697599,0.8706951
3.850089,0.7780523,-1.319443,0.9699246,0.8706951
3.900006,0.9051962,-1.308573,0.9699246,0.8836133
3.949723,0.7780523,-1.308573,0.9699246,0.9029908
4.000747,0.5237532,-1.297703,0.9697599,0.9029908
4.04927,0.6509008,-1.319443,0.9699246,0.9029908
4.100274,0.7780523,-1.319443,0.9699246,0.8836133
4.149711,0.7780523,-1.341174,0.9699246,0.8771542
4.199466,0.5237532,-1.297703,0.9699246,0.8642358
4.250222,0.6509008,-1.232508,0.9699246,0.8190217
4.299564,0.9051962,-1.112981,0.9697599,0.7996442
4.350539,0.6509008,-0.9717132,0.9699246,0.8513175
4.398998,0.5237532,-0.8956485,0.9699246,0.8577767
4.449973,0.6509008,-0.7326494,0.9699246,0.8577767
4.500013,0.7780523,-0.5153174,0.9699246,0.8577767
4.549748,0.6509008,-0.3197249,0.9697599,0.8642358
4.601019,0.3966055,-0.1132627,0.9699246,0.8642358
4.649762,0.5237532,0.017135,0.9699246,0.8771542
4.699716,0.6509008,0.1910039,0.9699246,0.8771542
4.749267,0.5237532,0.2670685,0.9699246,0.8900725
4.800341,0.5237532,0.3648647,0.9700893,0.8965316
4.850015,0.6509008,0.4409294,0.9699246,0.9029908
4.900014,0.6509008,0.5930586,0.9699246,0.8900725
4.949719,0.5237532,0.6691232,0.9699246,0.8836133
4.999719,0.3966055,0.7125944,0.9699246,0.8706951
5.050965,0.6509008,0.7451879,0.9700893,0.8513175
5.09951,0.5237532,0.8973252,0.9697599,0.8061033
5.149268,0.7780523,0.8973252,0.9699246,0.8319401
5.199382,0.5237532,0.9733897,0.9697599,0.8642358
5.249216,0.7780523,1.114649,0.9699246,0.8642358
5.300593,0.7780523,1.168982,0.9699246,0.8577767
5.349243,0.9051962,1.212453,0.9697599,0.8642358
5.399266,0.6509008,1.255917,0.9699246,0.8642358
5.449267,0.7780523,1.288518,0.9697599,0.8642358
5.499385,0.7780523,1.353713,0.9699246,0.8706951
5.549933,0.9051962,1.331981,0.9699246,0.8771542
5.598879,0.6509008,1.277648,0.9700893,0.9029908
5.648866,0.7780523,1.201584,0.9699246,0.8965316
5.698937,0.6509008,1.212453,0.9699246,0.9029908
5.749848,0.7780523,1.071186,0.9699246,0.8900725
5.800522,0.5237532,1.005991,0.9699246,0.8771542
5.849706,0.6509008,0.9081869,0.9699246,0.8642358
5.899532,0.7780523,0.9299185,0.9699246,0.8513175
5.949491,0.6509008,0.8755855,0.9697599,0.7996442
5.999131,0.5237532,0.8429921,0.9700893,0.8319401
6.050378,0.7780523,0.7669275,0.9699246,0.8577767
6.09913,0.6509008,0.8321223,0.9700893,0.8642358
6.148929,0.6509008,0.7234563,0.9699246,0.8642358
6.199987,0.5237532,0.679993,0.9699246,0.8577767
6.249717,0.7780523,0.5821968,0.9700893,0.8642358
6.301011,0.6509008,0.516994,0.9699246,0.8577767
6.349505,0.6509008,0.4300676,0.9699246,0.8706951
6.399206,0.5237532,0.2453369,0.9697599,0.8642358
6.449677,0.7780523,0.06060623,0.9699246,0.8706951
6.499617,0.6509008,0.0388666,0.9699246,0.9029908
6.550682,0.3966055,0.06060623,0.9700893,0.8965316
6.599256,0.5237532,-0.03719803,0.9699246,0.8965316
6.64903,0.5237532,-0.1132627,0.9697599,0.8836133
6.698984,0.5237532,-0.1784575,0.9699246,0.8706951
6.749211,0.5237532,-0.3197249,0.9699246,0.8577767
6.80113,0.3966055,-0.3740579,0.9700893,0.8190217
6.849692,0.5237532,-0.4175211,0.9699246,0.8061033
6.899837,0.6509008,-0.5261872,0.9699246,0.8513175
6.949677,0.6509008,-0.5805202,0.9699246,0.8513175
6.999171,0.5237532,-0.6457151,0.9699246,0.8577767
7.050129,0.6509008,-0.7978523,0.9697599,0.8577767
7.098946,0.6509008,-0.8413155,0.9699246,0.8642358
7.148987,0.5237532,-0.9717132,0.9699246,0.8706951
7.199717,0.5237532,-0.9934448,0.9699246,0.8642358
7.249454,0.5237532,-1.047778,0.9699246,0.8642358
7.30069,0.6509008,-1.102111,0.9697599,0.8577767
7.349449,0.6509008,-1.167306,0.9700893,0.8642358
7.398978,0.3966055,-1.189045,0.9699246,0.8836133
7.44898,0.5237532,-1.210777,0.9699246,0.90945
7.499687,0.6509008,-1.232508,0.9700893,0.8965316
7.550721,0.5237532,-1.189045,0.9699246,0.8900725
7.599479,0.3966055,-1.210777,0.9699246,0.8771542
7.649496,0.5237532,-1.145574,0.9699246,0.8771542
7.699727,0.6509008,-1.091241,0.9699246,0.8577767
7.749819,0.7780523,-0.9825749,0.9699246,0.8383992
7.801,0.5237532,-0.7761127,0.9699246,0.7867259
7.850981,0.5237532,-0.5587886,0.9697599,0.8319401
7.899501,0.6509008,-0.3197249,0.9699246,0.8577767
7.949493,0.6509008,-0.1567259,0.9699246,0.8513175
7.998978,0.3966055,-0.03719803,0.9697599,0.8577767
8.050766,0.3966055,0.1040694,0.9699246,0.8513175
8.100289,0.5237532,0.3105317,0.9697599,0.8577767
8.149245,0.5237532,0.3974662,0.9699246,0.8642358
8.199977,0.5237532,0.4843926,0.9699246,0.8642358
8.250121,0.5237532,0.5061322,0.9699246,0.8771542
8.300819,0.6509008,0.5930586,0.9699246,0.8900725
8.350731,0.5237532,0.7560577,0.9699246,0.8900725
8.399247,0.5237532,0.7777893,0.9699246,0.8900725
8.449121,0.6509008,0.8429921,0.9699246,0.8771542
8.49912,0.5237532,0.9625199,0.9699246,0.8771542
8.550167,0.6509008,1.103787,0.9702541,0.8642358
8.600962,0.5237532,1.168982,0.9697599,0.8383992
8.64949,0.6509008,1.190714,0.9699246,0.793185
8.699771,0.6509008,1.288518,0.9699246,0.8254809
8.749365,0.5237532,1.342851,0.9699246,0.8577767
8.800191,0.5237532,1.408046,0.9699246,0.8513175
8.850242,0.6509008,1.364583,0.9697599,0.8513175
8.900119,0.7780523,1.408046,0.9699246,0.8577767
8.950066,0.5237532,1.364583,0.9699246,0.8577767
8.999982,0.6509008,1.223315,0.9699246,0.8577767
9.04997,0.5237532,1.092918,0.9699246,0.8642358
9.099938,0.7780523,1.15812,0.9699246,0.8642358
9.150116,0.6509008,1.071186,0.9700893,0.8642358
9.199957,0.5237532,0.9733897,0.9699246,0.8642358
9.249823,0.6509008,0.8429921,0.9699246,0.8577767
9.300874,0.6509008,0.7995209,0.9697599,0.8577767
9.350814,0.3966055,0.8538539,0.9699246,0.8577767
9.39924,0.5237532,0.6908628,0.9697599,0.8577767
9.44894,0.6509008,0.6147902,0.9697599,0.8642358
9.499692,0.6509008,0.5604652,0.9699246,0.8577767
9.550562,0.5237532,0.5495954,0.9700893,0.8513175
9.60024,0.5237532,0.2996699,0.9699246,0.8577767
9.648938,0.6509008,0.1366709,0.9699246,0.8642358
9.699065,0.6509008,0.09319963,0.9699246,0.8642358
9.74896,0.5237532,0.017135,0.9699246,0.8577767
9.800916,0.5237532,-0.05892963,0.9699246,0.8513175
9.849912,0.6509008,-0.2001891,0.9697599,0.8577767
9.900079,0.6509008,-0.2979933,0.9699246,0.8577767
9.949066,0.5237532,-0.3849197,0.9699246,0.8577767
9.999304,0.5237532,-0.4501226,0.9699246,0.8577767
10.04993,0.5237532,-0.5696504,0.9697599,0.8577767
10.10109,0.5237532,-0.5696504,0.9699246,0.8577767
10.14987,0.5237532,-0.6783165,0.9699246,0.8577767
10.19943,0.3966055,-0.7543811,0.9699246,0.8577767
10.24994,0.7780523,-0.9065104,0.9699246,0.8577767
10.29993,0.6509008,-1.058648,0.9697599,0.8577767
10.35009,0.6509008,-1.178175,0.9697599,0.8577767
10.39979,0.5237532,-1.243378,0.9699246,0.8577767
10.44944,0.5237532,-1.25424,0.9699246,0.8577767
10.50006,0.3966055,-1.243378,0.9699246,0.8577767
10.54993,0.6509008,-1.297703,0.9699246,0.8577767
10.60091,0.5237532,-1.352036,0.9697599,0.8577767
10.64917,0.7780523,-1.406369,0.9699246,0.8577767
10.69895,0.6509008,-1.384638,0.9699246,0.8642358
10.74983,0.5237532,-1.428101,0.9699246,0.8577767
10.80091,0.5237532,-1.428101,0.9697599,0.8513175
10.85073,0.7780523,-1.417239,0.9699246,0.8577767
10.89948,0.6509008,-1.319443,0.9699246,0.8577767
10.94943,0.5237532,-1.308573,0.9697599,0.8577767
10.99935,0.5237532,-1.26511,0.9699246,0.8577767
11.0503,0.5237532,-1.134712,0.9697599,0.8577767
11.10047,0.7780523,-0.8630471,0.9699246,0.8513175
11.14892,0.6509008,-0.6891863,0.9699246,0.8577767
11.19992,0.3966055,-0.482724,0.9697599,0.8577767
11.24921,0.5237532,-0.3740579,0.9699246,0.8577767
11.30046,0.6509008,-0.1567259,0.9697599,0.8577767
11.35059,0.5237532,0.08233783,0.9699246,0.8577767
11.39921,0.3966055,0.1366709,0.9699246,0.8577767
11.44948,0.6509008,0.2453369,0.9697599,0.8577767
11.49927,0.5237532,0.3757345,0.9699246,0.8577767
11.54999,0.7780523,0.5278638,0.9702541,0.8577767
11.60095,0.5237532,0.5495954,0.9700893,0.8513175
11.64956,0.5237532,0.516994,0.9699246,0.8577767
11.69992,0.5237532,0.6365299,0.9699246,0.8577767
11.7492,0.6509008,0.7234563,0.9699246,0.8577767
11.80048,0.5237532,0.8429921,0.9699246,0.8577767
11.85017,0.6509008,0.9190567,0.9699246,0.8513175
11.89996,0.6509008,1.049454,0.9699246,0.8577767
11.94997,0.5237532,1.136389,0.9699246,0.8577767
11.99997,0.5237532,1.15812,0.9697599,0.8577767
12.05094,0.6509008,1.190714,0.9697599,0.8513175
12.10103,0.6509008,1.29938,0.9699246,0.8513175
12.14972,0.5237532,1.288518,0.9699246,0.8577767
12.19948,0.6509008,1.277648,0.9700893,0.8577767
12.24903,0.6509008,1.234185,0.9699246,0.8577767
12.29998,0.6509008,1.190714,0.9699246,0.8577767
12.35117,0.5237532,1.15812,0.9699246,0.8577767
12.39997,0.3966055,0.9951214,0.9699246,0.8577767
12.44974,0.5237532,0.9081869,0.9676188,0.8577767
12.49973,0.6509008,0.9081869,0.9600421,0.8577767
12.55073,0.5237532,0.9407883,0.9598774,0.8513175
12.60047,0.5237532,0.7886591,0.9598774,0.8577767
12.64897,0.6509008,0.6908628,0.9600421,0.8577767
12.69919,0.6509008,0.6691232,0.9598774,0.8577767
12.7492,0.6509008,0.571327,0.9598774,0.8513175
12.80042,0.5237532,0.5061322,0.9598774,0.8513175
12.85017,0.5237532,0.3648647,0.9598774,0.8577767
12.89993,0.5237532,0.2996699,0.9598774,0.8513175
12.94996,0.5237532,0.1475326,0.9600421,0.8513175
12.99981,0.5237532,-0.004596607,0.9598774,0.8513175
13.05093,0.5237532,-0.1458561,0.9598774,0.8513175
13.1007,0.5237532,-0.1567259,0.9598774,0.8513175
13.15017,0.5237532,-0.1893273,0.9699246,0.8513175
13.19967,0.5237532,-0.3631881,0.9699246,0.8577767
13.24966,0.6509008,-0.4392528,0.9699246,0.8577767
13.30067,0.6509008,-0.5261872,0.9699246,0.8513175
13.35067,0.6509008,-0.537057,0.9699246,0.8513175
13.39904,0.3966055,-0.6565849,0.9699246,0.8513175
13.45018,0.6509008,-0.7435193,0.9697599,0.8577767
13.49994,0.6509008,-0.7761127,0.9699246,0.8513175
13.55092,0.6509008,-0.8195839,0.9699246,0.8513175
13.6008,0.5237532,-1.015176,0.9699246,0.8513175
13.6494,0.7780523,-1.156444,0.9699246,0.8513175
13.69968,0.6509008,-1.189045,0.9699246,0.8513175
13.74916,0.6509008,-1.232508,0.9699246,0.8513175
13.80005,0.5237532,-1.25424,0.9699246,0.8513175
13.85046,0.6509008,-1.286842,0.9699246,0.8513175
13.89931,0.6509008,-1.297703,0.9700893,0.8577767
13.94916,0.6509008,-1.362906,0.9700893,0.8577767
13.99918,0.5237532,-1.395508,0.9699246,0.8513175
14.05029,0.6509008,-1.362906,0.9697599,0.8513175
14.10059,0.5237532,-1.308573,0.9697599,0.8513175
14.14992,0.5237532,-1.243378,1.269859,0.8513175
14.19919,0.5237532,-1.156444,1.269859,0.8513175
14.25016,0.6509008,-1.091241,1.269859,0.8513175
14.30116,0.6509008,-0.9717132,1.269694,0.8513175
14.35107,0.6509008,-0.7326494,1.269859,0.8513175
14.39971,0.3966055,-0.5805202,1.269859,0.8513175
14.44918,0.5237532,-0.3414565,1.269859,0.8513175
14.50014,0.6509008,-0.1241244,1.269859,0.8513175
14.55017,0.5237532,0.04973641,1.269859,0.8513175
14.60034,0.5237532,0.1366709,1.269859,0.8448583
14.65017,0.5237532,0.2235973,1.269694,0.8513175
14.69993,0.3966055,0.3974662,1.269694,0.8513175
14.74996,0.5237532,0.5278638,1.270024,0.8513175
14.80091,0.5237532,0.5821968,1.269694,0.8513175
14.85067,0.5237532,0.6147902,1.269859,0.8513175
14.89994,0.5237532,0.6908628,1.269694,0.8448583
14.94994,0.6509008,0.7669275,1.269859,0.8448583
14.99993,0.5237532,0.7886591,1.269859,0.8513175
15.0501,0.5237532,0.8321223,1.269694,0.8513175
15.10071,0.5237532,1.005991,1.269694,0.8448583
15.14919,0.6509008,1.049454,1.269859,0.8513175
15.19929,0.5237532,1.071186,1.269694,0.8577767
15.25019,0.6509008,1.071186,1.269694,0.8513175
15.30091,0.6509008,1.136389,1.269859,0.8513175
15.35078,0.3966055,1.234185,1.269859,0.8513175
15.39941,0.5237532,1.092918,1.269859,0.8513175
15.44941,0.5237532,0.9951214,1.269859,0.8513175
15.49992,0.5237532,0.9516582,1.269694,0.8513175
15.55095,0.5237532,0.9190567,1.269859,0.8448583
15.60095,0.5237532,0.7995209,1.270024,0.8513175
15.6497,0.5237532,0.6582614,1.269859,0.8513175
15.6999,0.5237532,0.5930586,1.269694,0.8513175
15.74993,0.5237532,0.62566,1.269859,0.8513175
15.80118,0.5237532,0.5387256,1.269694,0.8448583
15.85043,0.5237532,0.4517992,1.269859,0.8513175
15.89919,0.6509008,0.3539949,1.269859,0.8513175
15.94918,0.5237532,0.2996699,1.269859,0.8513175
15.99928,0.5237532,0.2018657,1.269859,0.8513175
16.05058,0.5237532,0.09319963,1.269694,0.8448583
16.10026,0.5237532,0.07146802,1.269859,0.8513175
16.15019,0.6509008,0.006273206,0.9499949,0.8513175
16.19908,0.5237532,-0.1893273,0.9499949,0.8513175
16.24928,0.6509008,-0.3305867,0.9498302,0.8513175
16.30018,0.7780523,-0.4066594,0.9499949,0.8513175
16.3503,0.6509008,-0.4066594,0.9498302,0.8513175
16.40014,0.5237532,-0.482724,0.9499949,0.8513175
16.44908,0.6509008,-0.5479188,0.9498302,0.8513175
16.49918,0.6509008,-0.6022518,0.9499949,0.8513175
16.5504,0.6509008,-0.6565849,0.9501596,0.8513175
16.60093,0.5237532,-0.7978523,0.9499949,0.8448583
16.64957,0.6509008,-0.8739169,0.9498302,0.8513175
16.69916,0.6509008,-0.8956485,0.9499949,0.8513175
16.74929,0.3966055,-0.9608433,0.9498302,0.8513175
16.80058,0.5237532,-1.243378,0.9600421,0.8513175
16.85078,0.6509008,-2.036626,0.9598774,0.8513175
16.89925,0.5237532,-2.362624,0.9600421,0.8513175
16.9499,0.5237532,-2.753817,0.9600421,0.8448583
16.9991,0.5237532,-2.916816,0.9600421,0.8513175
17.0509,0.5237532,-2.960279,0.9597127,0.8448583
17.10028,0.6509008,-2.992881,0.9598774,0.8448583
17.15021,0.6509008,-3.014612,0.9602068,0.8513175
17.20021,0.3966055,-3.047214,0.9598774,0.8513175
17.24994,0.5237532,-3.079807,0.9598774,0.8513175
17.3009,0.5237532,-3.068945,0.9597127,0.8513175
17.35077,0.5237532,-3.014612,0.9600421,0.8448583
17.39955,0.5237532,-2.873345,0.9598774,0.8513175
17.44939,0.5237532,-2.634281,0.9598774,0.8513175
17.4992,0.5237532,-2.406087,0.9598774,0.8513175
17.55021,0.3966055,-2.177893,0.9600421,0.8448583
17.60115,0.6509008,-2.004025,0.9597127,0.8448583
17.64978,0.3966055,-1.743229,0.9598774,0.8513175
17.69973,0.3966055,-1.438971,0.9598774,0.8513175
17.74971,0.5237532,-1.102111,0.9598774,0.8448583
17.80077,0.5237532,-0.7326494,0.9598774,0.8448583
17.85069,0.5237532,-0.4935858,0.9598774,0.8448583
17.89941,0.5237532,-0.2979933,0.9598774,0.8513175
17.94907,0.3966055,-0.1349943,0.9600421,0.8513175
17.99906,0.3966055,0.06060623,0.9600421,0.8513175
18.0503,0.5237532,0.2018657,0.9598774,0.8513175
18.10119,0.5237532,0.3865964,0.9598774,0.8448583
18.14969,0.6509008,0.4952624,0.9598774,0.8513175
18.1994,0.3966055,0.5821968,0.9598774,0.8448583
18.2494,0.6509008,0.6365299,0.9597127,0.8448583
18.30028,0.6509008,0.7125944,0.9598774,0.8448583
18.35076,0.6509008,0.8647237,0.9598774,0.8448583
18.39928,0.3966055,0.8647237,0.9598774,0.8448583
18.44919,0.5237532,0.9842516,0.9597127,0.8513175
18.49919,0.6509008,1.125519,0.9699246,0.8448583
18.55041,0.5237532,1.277648,0.9700893,0.8448583
18.60041,0.6509008,1.245047,0.9697599,0.8513175
18.64919,0.3966055,1.212453,0.9699246,0.8448583
18.69923,0.5237532,1.266786,0.9697599,0.8448583
18.75019,0.5237532,1.342851,0.9699246,0.8448583
18.80114,0.6509008,1.223315,0.9699246,0.8448583
18.85113,0.6509008,1.136389,0.9697599,0.8448583
18.89964,0.5237532,1.114649,0.9699246,0.8448583
18.94914,0.3966055,1.027723,0.9699246,0.8513175
18.99918,0.6509008,0.9299185,0.9700893,0.8513175
19.05054,0.6509008,0.7560577,0.9697599,0.8448583
19.1004,0.5237532,0.8103907,0.9697599,0.8448583
19.14906,0.6509008,0.7451879,0.9699246,0.8513175
19.20014,0.5237532,0.6908628,0.9699246,0.8448583
19.25019,0.6509008,0.5604652,0.9699246,0.8513175
19.30013,0.5237532,0.516994,0.9697599,0.8448583
19.35118,0.6509008,0.462661,0.9697599,0.8448583
19.39966,0.5237532,0.3214015,0.9699246,0.8513175
19.44966,0.3966055,0.1910039,0.9699246,0.8448583
19.49919,0.5237532,0.125801,0.9699246,0.8448583
19.5503,0.5237532,0.1040694,0.9699246,0.8448583
19.60018,0.3966055,-0.04805982,0.9697599,0.8448583
19.65018,0.5237532,-0.2871235,0.9699246,0.8448583
19.69938,0.5237532,-0.3523263,0.9699246,0.8448583
19.74914,0.5237532,-0.4175211,0.9699246,0.8448583
19.80087,0.6509008,-0.4501226,0.9699246,0.8383992
19.85052,0.5237532,-0.5044556,0.9697599,0.8448583
19.89918,0.5237532,-0.591382,0.9697599,0.8448583
19.94988,0.6509008,-0.6783165,0.9699246,0.8448583
19.99964,0.6509008,-0.8304457,0.9699246,0.8448583
20.05069,0.5237532,-1.004315,0.9697599,0.8448583
20.10113,0.7780523,-1.058648,0.9697599,0.8448583
20.14966,0.3966055,-1.091241,0.9699246,0.8513175
20.20013,0.5237532,-1.102111,0.9697599,0.8448583
20.24967,0.5237532,-1.221639,0.9697599,0.8448583
20.30039,0.5237532,-1.286842,0.9697599,0.8448583
20.35037,0.5237532,-1.460702,0.9700893,0.8448583
20.40018,0.3966055,-1.623701,0.9699246,0.8448583
20.45005,0.5237532,-1.743229,0.976513,0.8513175
20.49993,0.5237532,-1.754099,0.9799718,0.8448583
20.55125,0.6509008,-1.667165,0.9798071,0.8448583
20.60101,0.3966055,-1.623701,0.9798071,0.8448583
20.64965,0.5237532,-1.536767,0.9798071,0.8448583
20.70118,0.5237532,-1.428101,0.9796425,0.8383992
20.74989,0.5237532,-1.210777,0.9798071,0.8448583
20.79993,0.5237532,-1.004315,0.9799718,0.8448583
20.84933,0.3966055,-0.7978523,0.9798071,0.8448583
20.8993,0.5237532,-0.6131216,0.9798071,0.8448583
20.95012,0.5237532,-0.3414565,0.9798071,0.8383992
21.00013,0.5237532,-0.2110589,0.9798071,0.8383992
21.05017,0.6509008,-0.1241244,0.9799718,0.8448583
21.09967,0.6509008,0.125801,0.9799718,0.8448583
21.14999,0.3966055,0.3214015,0.9799718,0.8448583
21.20076,0.5237532,0.4300676,0.9798071,0.8383992
21.24951,0.5237532,0.4843926,0.9798071,0.8448583
21.29918,0.5237532,0.62566,0.9798071,0.8448583
21.34913,0.5237532,0.7125944,0.9798071,0.8448583
21.39917,0.5237532,0.7995209,0.9798071,0.8448583
21.45053,0.5237532,0.8973252,0.9798071,0.8448583
21.49992,0.5237532,1.049454,0.9799718,0.8383992
21.55003,0.5237532,1.212453,0.9799718,0.8448583
21.59961,0.6509008,1.212453,0.9798071,0.8448583
21.64942,0.6509008,1.234185,0.9798071,0.8448583
21.70073,0.6509008,1.31025,0.9798071,0.8383992
21.74936,0.5237532,1.397184,0.9799718,0.8448583
21.79942,0.5237532,1.484111,0.9798071,0.8448583
21.84992,0.5237532,1.549313,0.9798071,0.8448583
21.89953,0.5237532,1.723174,0.9798071,0.8448583
21.95083,0.5237532,1.799239,0.9798071,0.8448583
21.99942,0.5237532,1.723174,0.9799718,0.8448583
22.05025,0.6509008,1.701443,0.9798071,0.8383992
22.10029,0.5237532,1.788377,0.9798071,0.8448583
22.14992,0.5237532,1.83184,0.9799718,0.8383992
22.20092,0.6509008,1.668841,0.9798071,0.8383992
22.24962,0.6509008,1.614508,0.9798071,0.8448583
22.29934,0.6509008,1.625378,0.9798071,0.8448583
22.34929,0.5237532,1.527582,0.9798071,0.8448583
22.40013,0.5237532,1.451509,0.9798071,0.8448583
22.45117,0.6509008,1.353713,0.9798071,0.8383992
22.49992,0.6509008,1.321111,0.9799718,0.8448583
22.54974,0.6509008,1.31025,0.9801366,0.8448583
22.60004,0.3966055,1.168982,0.9798071,0.8448583
22.6495,0.5237532,1.005991,0.9798071,0.8448583
22.70104,0.5237532,0.9407883,0.9796425,0.8383992
22.74991,0.5237532,0.9407883,0.9798071,0.8448583
22.79941,0.3966055,0.8103907,0.9798071,0.8448583
22.84941,0.3966055,0.679993,0.9798071,0.8383992
22.89936,0.5237532,0.6691232,0.9798071,0.8448583
22.95041,0.5237532,0.6473916,0.9798071,0.8383992
22.99916,0.5237532,0.4300676,0.9798071,0.8448583
23.04942,0.5237532,0.2996699,0.9799718,0.8448583
23.09941,0.5237532,0.2779303,0.9799718,0.8448583
23.14916,0.6509008,0.1801341,0.9799718,0.8448583
23.20033,0.5237532,0.1040694,0.9798071,0.8383992
23.24916,0.6509008,-0.03719803,0.9798071,0.8448583
23.29916,0.5237532,-0.1132627,0.9799718,0.8448583
23.34941,0.5237532,-0.2219287,0.9799718,0.8448583
23.40008,0.5237532,-0.2871235,0.9798071,0.8383992
23.45016,0.5237532,-0.3957896,0.9798071,0.8448583
23.49975,0.5237532,-0.4935858,0.9798071,0.8383992
23.54973,0.6509008,-0.537057,0.9799718,0.8383992
23.59974,0.5237532,-0.7109179,0.9799718,0.8448583
23.6494,0.5237532,-0.8413155,0.9798071,0.8383992
23.70089,0.6509008,-0.8956485,0.9798071,0.8319401
23.74928,0.5237532,-0.9717132,0.9798071,0.8448583
23.80034,0.5237532,-1.004315,0.9799718,0.8448583
23.85003,0.6509008,-1.080379,0.9798071,0.8448583
23.89991,0.6509008,-1.134712,0.9798071,0.8383992
23.95115,0.5237532,-1.26511,0.9798071,0.8383992
23.99985,0.5237532,-1.362906,0.9798071,0.8383992
24.0499,0.6509008,-1.438971,0.9798071,0.8383992
24.10003,0.6509008,-1.449841,0.9798071,0.8383992
24.1499,0.5237532,-1.493304,0.9799718,0.8448583
24.20085,0.5237532,-1.525905,0.9798071,0.8383992
24.24948,0.5237532,-1.612832,0.9798071,0.8383992
24.30028,0.7780523,-1.721498,0.9798071,0.8383992
24.35028,0.7780523,-1.710636,0.9799718,0.8383992
24.40016,0.5237532,-1.764969,0.9798071,0.8383992
24.45129,0.6509008,-1.612832,0.9798071,0.8383992
24.49989,0.5237532,-1.428101,0.9798071,0.8383992
24.54985,0.3966055,-1.275972,0.9799718,0.8448583
24.59987,0.3966055,-1.178175,0.9798071,0.8383992
24.64987,0.5237532,-0.9717132,0.9798071,0.8383992
24.70103,0.5237532,-0.7543811,0.9798071,0.8383992
24.74973,0.5237532,-0.5479188,0.9799718,0.8383992
24.7995,0.5237532,-0.4718542,1.269859,0.8383992
24.8494,0.5237532,-0.3631881,1.269694,0.8448583
24.89927,0.5237532,-0.2110589,1.269694,0.8383992
24.95027,0.5237532,-0.03719803,1.269694,0.8319401
24.99998,0.5237532,0.06060623,1.269694,0.8383992
25.04948,0.5237532,0.1475326,1.269694,0.8383992
25.09935,0.5237532,0.3865964,1.269694,0.8383992
25.14952,0.3966055,0.4735308,1.269859,0.8383992
25.20076,0.5237532,0.5495954,1.269694,0.8383992
25.24927,0.6509008,0.5821968,1.269694,0.8383992
25.29936,0.5237532,0.7125944,1.269694,0.8383992
25.34927,0.5237532,0.7886591,1.269694,0.8383992
25.39915,0.5237532,0.8864553,1.269694,0.8383992
25.45115,0.6509008,0.9733897,1.269694,0.8383992
25.49971,0.5237532,1.071186,1.269859,0.8383992
25.54965,0.5237532,1.179852,1.269859,0.8383992
25.59961,0.6509008,1.168982,1.269859,0.8383992
25.65032,0.5237532,1.168982,1.269694,0.8383992
25.70135,0.5237532,1.234185,1.269694,0.8383992
25.7496,0.5237532,1.342851,1.269859,0.8383992
25.80023,0.5237532,1.321111,1.269694,0.8383992
25.84928,0.6509008,1.245047,1.269694,0.8383992
25.9,0.5237532,1.223315,1.269694,0.8383992
25.95112,0.6509008,1.212453,1.269694,0.8383992
26.00001,0.5237532,1.092918,1.269859,0.8383992
26.04982,0.3966055,0.9733897,1.269694,0.8383992
26.09942,0.5237532,1.060316,1.269859,0.8383992
26.14939,0.3966055,0.8864553,1.269694,0.8383992
26.2004,0.5237532,0.7560577,1.269859,0.8383992
26.24927,0.3966055,0.6039284,1.269694,0.8383992
26.30024,0.6509008,0.4735308,1.269694,0.8319401
26.35037,0.5237532,0.4735308,1.269859,0.8383992
26.40022,0.6509008,0.4300676,1.269859,0.8383992
26.45122,0.5237532,0.2779303,1.269694,0.8383992
26.49961,0.5237532,0.2235973,1.269694,0.8383992
26.5496,0.5237532,0.08233783,1.270024,0.8383992
26.59952,0.6509008,-0.1023928,1.269694,0.8383992
26.64917,0.5237532,-0.2327905,1.269694,0.8383992
26.70039,0.5237532,-0.2871235,1.269694,0.8319401
26.75039,0.3966055,-0.2762537,1.269859,0.8319401
26.80039,0.3966055,-0.4066594,0.9597127,0.8383992
26.85018,0.6509008,-0.4718542,0.9600421,0.8383992
26.89986,0.6509008,-0.6022518,0.9597127,0.8319401
26.95096,0.5237532,-0.6783165,0.9598774,0.8383992
26.99956,0.5237532,-0.7543811,0.9597127,0.8383992
27.05139,0.5237532,-0.7978523,0.9597127,0.8383992
27.09974,0.5237532,-0.7652509,0.9598774,0.8383992
27.14964,0.5237532,-0.8956485,0.9600421,0.8383992
27.20083,0.6509008,-1.026046,0.9598774,0.8319401
27.24932,0.6509008,-1.167306,0.9598774,0.8383992
27.30085,0.5237532,-1.232508,0.9598774,0.8383992
27.34935,0.5237532,-1.26511,0.9598774,0.8383992
27.40021,0.6509008,-1.308573,0.9598774,0.8319401
27.45068,0.5237532,-1.362906,0.9598774,0.8383992
27.49939,0.6509008,-1.373776,0.9598774,0.8383992
27.55059,0.5237532,-1.373776,0.9597127,0.8383992
27.59939,0.5237532,-1.515035,0.9598774,0.8383992
27.64938,0.5237532,-1.623701,0.9598774,0.8383992
27.70064,0.5237532,-1.667165,0.9598774,0.8383992
27.75039,0.6509008,-1.645433,0.9600421,0.8383992
27.80109,0.6509008,-1.678034,0.9597127,0.8577767
27.84983,0.5237532,-1.688904,0.9600421,0.8642358
27.89998,0.6509008,-1.699766,0.9597127,0.8577767
27.95109,0.5237532,-1.678034,0.9598774,0.8642358
27.99967,0.5237532,-1.623701,0.9598774,0.8577767
28.05087,0.5237532,-1.504174,0.9598774,0.8513175
28.10038,0.6509008,-1.297703,0.9598774,0.8448583
28.15038,0.5237532,-1.058648,0.9598774,0.8319401
28.20038,0.5237532,-0.8739169,0.9597127,0.7673484
28.25033,0.6509008,-0.7217796,0.9597127,0.793185
28.30039,0.6509008,-0.6131216,0.9597127,0.8319401
28.35009,0.6509008,-0.4066594,0.9598774,0.8319401
28.39984,0.5237532,-0.2871235,0.9598774,0.8319401
28.45106,0.6509008,-0.08066124,0.9598774,0.8319401
28.50008,0.5237532,0.08233783,0.9597127,0.8319401
28.5509,0.6509008,0.2453369,0.9597127,0.8513175
28.59958,0.5237532,0.3105317,0.9597127,0.8706951
28.6493,0.5237532,0.3757345,0.9598774,0.8642358
28.7003,0.5237532,0.5061322,0.9598774,0.8577767
28.75037,0.3966055,0.679993,0.9598774,0.8513175
28.80106,0.6509008,0.679993,0.9597127,0.8448583
28.85,0.5237532,0.6908628,0.9597127,0.8383992
28.89997,0.5237532,0.7777893,0.9597127,0.8190217
28.95123,0.6509008,0.8647237,0.9598774,0.7608892
28.99988,0.5237532,0.8755855,0.9598774,0.8125626
29.05121,0.5237532,0.9299185,0.9598774,0.8319401
29.09963,0.5237532,1.060316,0.9597127,0.8319401
29.14938,0.5237532,1.082056,0.9598774,0.8383992
29.20062,0.5237532,1.092918,0.9598774,0.8577767
29.24937,0.5237532,1.027723,0.9597127,0.8706951
29.30133,0.5237532,0.9733897,0.9598774,0.8577767
29.34947,0.6509008,1.027723,0.9598774,0.8577767
29.39925,0.5237532,0.9407883,0.9598774,0.8448583
29.45037,0.6509008,0.8647237,0.9598774,0.8383992
29.5001,0.5237532,0.7777893,0.9598774,0.8319401
29.55146,0.5237532,0.7451879,0.9597127,0.7802668
29.60024,0.6509008,0.6582614,0.9597127,0.7867259
29.65011,0.5237532,0.462661,0.9598774,0.8319401
29.70085,0.6509008,0.3648647,0.9597127,0.8319401
29.74968,0.5237532,0.4300676,0.9598774,0.8319401
29.80086,0.6509008,0.2996699,0.9597127,0.8319401
29.85037,0.6509008,0.1692643,0.9598774,0.8383992
29.89969,0.6509008,0.08233783,0.9597127,0.8642358
29.95082,0.5237532,-0.004596607,0.9598774,0.8706951
29.99997,0.6509008,-0.1567259,0.9598774,0.8577767
30.05104,0.5237532,-0.2545221,0.9598774,0.8513175
30.10045,0.5237532,-0.2762537,0.9598774,0.8448583
30.15004,0.5237532,-0.3414565,0.9598774,0.8319401
30.20133,0.5237532,-0.4718542,0.9598774,0.8061033
30.24982,0.6509008,-0.6565849,0.9597127,0.7608892
30.30032,0.6509008,-0.7435193,0.9598774,0.8190217
30.3497,0.6509008,-0.7978523,0.9598774,0.8254809
30.39956,0.6509008,-0.9065104,0.9598774,0.8319401
30.45069,0.5237532,-0.9391118,0.9597127,0.8319401
30.49934,0.6509008,-0.9717132,0.9597127,0.8319401
30.55058,0.5237532,-1.069509,0.9598774,0.8383992
30.60019,0.6509008,-1.221639,0.9598774,0.8577767
30.6501,0.5237532,-1.308573,0.9597127,0.8642358
30.70149,0.6509008,-1.330305,0.9598774,0.8642358
30.75035,0.3966055,-1.308573,0.9598774,0.8577767
30.80037,0.5237532,-1.362906,0.9598774,0.8513175
30.84984,0.5237532,-1.449841,0.9597127,0.8319401
30.89932,0.5237532,-1.471572,0.9597127,0.8190217
30.95037,0.6509008,-1.569368,0.9598774,0.7673484
31.00049,0.6509008,-1.656303,0.9598774,0.8125626
31.05037,0.5237532,-1.688904,0.9598774,0.8254809
31.09929,0.5237532,-1.645433,0.9598774,0.8319401
31.15019,0.5237532,-1.634571,0.9598774,0.8319401
31.20079,0.6509008,-1.645433,0.9597127,0.8254809
31.24957,0.6509008,-1.721498,0.9597127,0.8319401
31.30119,0.5237532,-1.667165,0.9597127,0.8319401
31.34968,0.5237532,-1.547637,0.9598774,0.8319401
31.39932,0.5237532,-1.482434,0.9598774,0.8319401
31.45068,0.5237532,-1.297703,0.9598774,0.8319401
31.50041,0.5237532,-1.156444,0.9597127,0.8319401
31.55023,0.5237532,-0.9499816,0.9598774,0.8319401
31.60018,0.6509008,-0.8739169,0.9598774,0.8319401
31.65018,0.5237532,-0.7869825,0.9597127,0.8319401
31.70049,0.5237532,-0.6131216,0.9598774,0.8319401
31.75034,0.3966055,-0.3740579,0.9598774,0.8319401
31.80046,0.6509008,-0.1893273,0.9597127,0.8319401
31.85048,0.6509008,-0.03719803,0.9598774,0.8319401
31.90036,0.6509008,0.1040694,0.9598774,0.8319401
31.95149,0.5237532,0.2670685,0.9598774,0.8254809
32.00005,0.5237532,0.3322633,0.9598774,0.8319401
32.05149,0.5237532,0.4191978,0.9597127,0.8319401
32.0999,0.6509008,0.5604652,0.9598774,0.8319401
32.15044,0.5237532,0.679993,0.9597127,0.8319401
32.20044,0.6509008,0.7125944,0.9598774,0.8319401
32.25018,0.6509008,0.7343261,0.9598774,0.8254809
32.30107,0.5237532,0.7995209,0.9598774,0.8319401
32.34998,0.3966055,0.9299185,0.9598774,0.8319401
32.39998,0.6509008,0.8973252,0.9598774,0.8319401
32.45112,0.5237532,0.9299185,0.9598774,0.8319401
32.49986,0.5237532,1.027723,0.9597127,0.8254809
32.55064,0.5237532,1.15812,0.9597127,0.8319401
32.59948,0.5237532,1.147251,0.9598774,0.8319401
32.64944,0.5237532,1.092918,0.9598774,0.8319401
32.70056,0.5237532,1.114649,0.9597127,0.8319401
32.74993,0.6509008,1.223315,0.9598774,0.8319401
32.80082,0.5237532,1.060316,0.9598774,0.8254809
32.8497,0.5237532,0.8755855,0.9597127,0.8319401
32.89963,0.6509008,0.8755855,0.9598774,0.8319401
32.95093,0.6509008,0.8429921,0.9597127,0.8319401
32.99968,0.5237532,0.7125944,0.9598774,0.8319401
33.05068,0.5237532,0.5821968,0.9597127,0.8319401
33.09984,0.6509008,0.5278638,0.9597127,0.8319401
33.14963,0.5237532,0.5061322,0.9697599,0.8319401
33.20083,0.5237532,0.4083279,0.9697599,0.8319401
33.25011,0.5237532,0.2888001,0.9697599,0.8319401
33.30106,0.5237532,0.1910039,0.9697599,0.8319401
33.35019,0.5237532,0.1366709,0.9699246,0.8319401
33.40022,0.5237532,-0.06979142,0.9697599,0.8319401
33.45105,0.5237532,-0.1893273,0.9697599,0.8319401
33.49949,0.3966055,-0.2545221,0.9699246,0.8319401
33.5513,0.5237532,-0.3197249,0.9697599,0.8319401
33.59953,0.5237532,-0.3957896,0.9697599,0.8319401
33.64997,0.5237532,-0.4718542,0.9699246,0.8254809
33.70145,0.5237532,-0.5044556,0.9697599,0.8319401
33.7498,0.5237532,-0.591382,0.9699246,0.8254809
33.80078,0.5237532,-0.7869825,0.9697599,0.8254809
33.85011,0.5237532,-0.92825,0.9697599,0.8319401
33.8998,0.5237532,-1.004315,0.9697599,0.8319401
33.95057,0.5237532,-1.015176,0.9697599,0.8319401
34.00029,0.5237532,-1.112981,0.9697599,0.8319401
34.05032,0.5237532,-1.25424,0.9699246,0.8319401
34.10032,0.5237532,-1.297703,0.9697599,0.8319401
34.15032,0.5237532,-1.341174,0.9699246,0.8319401
34.20128,0.6509008,-1.384638,0.9699246,0.8319401
34.24982,0.6509008,-1.417239,0.9697599,0.8254809
34.30105,0.5237532,-1.449841,0.9695953,0.8319401
34.34982,0.3966055,-1.449841,0.9699246,0.8319401
34.39955,0.5237532,-1.525905,0.9699246,0.8254809
34.45033,0.6509008,-1.623701,0.9697599,0.8254809
34.50032,0.5237532,-1.699766,0.9697599,0.8319401
34.55128,0.6509008,-1.688904,0.9697599,0.8254809
34.6004,0.3966055,-1.699766,0.9697599,0.8319401
34.65029,0.6509008,-1.699766,0.9697599,0.8319401
34.70084,0.5237532,-1.699766,0.9695953,0.8254809
34.74956,0.5237532,-1.634571,0.9699246,0.8319401
34.80129,0.5237532,-1.634571,0.9697599,0.8254809
34.85005,0.5237532,-1.558499,0.9695953,0.8319401
34.89985,0.5237532,-1.406369,0.9697599,0.8319401
34.95102,0.6509008,-1.189045,0.9697599,0.8319401
34.99955,0.6509008,-1.058648,0.9699246,0.8319401
35.05084,0.5237532,-0.8956485,0.9697599,0.8319401
35.10044,0.6509008,-0.6891863,0.9697599,0.8254809
35.14991,0.6509008,-0.5696504,0.9697599,0.8319401
35.2011,0.6509008,-0.5261872,0.9697599,0.8319401
35.24957,0.5237532,-0.4392528,0.9697599,0.8319401
35.30061,0.5237532,-0.2327905,0.9697599,0.8254809
35.35057,0.5237532,0.0388666,0.9697599,0.8319401
35.39955,0.6509008,0.1584025,0.9699246,0.8254809
35.45084,0.5237532,0.2561987,0.9697599,0.8319401
35.49931,0.5237532,0.3865964,0.9697599,0.8254809
35.55051,0.5237532,0.5387256,0.9699246,0.8319401
35.60033,0.6509008,0.571327,0.9699246,0.8319401
35.6504,0.5237532,0.62566,0.9697599,0.8254809
35.70058,0.6509008,0.7017246,0.9697599,0.8319401
35.75029,0.6509008,0.8429921,0.9699246,0.8254809
35.80109,0.6509008,0.8429921,0.9697599,0.8319401
35.84958,0.6509008,0.8321223,0.9697599,0.8254809
35.89958,0.7780523,0.9516582,0.9699246,0.8254809
35.95076,0.6509008,1.016853,0.9699246,0.8319401
35.99971,0.6509008,0.9625199,0.9699246,0.8319401
36.05056,0.6509008,0.9733897,0.9697599,0.8319401
36.09933,0.7780523,1.016853,0.9697599,0.8254809
36.14931,0.6509008,0.9951214,0.9699246,0.8254809
36.20068,0.6509008,0.8755855,0.9699246,0.8254809
36.24944,0.7780523,0.7451879,0.9697599,0.8254809
36.30037,0.7780523,0.7125944,0.9697599,0.8254809
36.35027,0.6509008,0.7234563,0.9697599,0.8254809
36.40042,0.7780523,0.5930586,0.9697599,0.8319401
36.45055,0.6509008,0.4843926,0.9699246,0.8254809
36.49942,0.6509008,0.4300676,0.9699246,0.8254809
36.55043,0.7780523,0.3539949,0.9699246,0.8254809
36.59983,0.6509008,0.1475326,0.9697599,0.8254809
36.64963,0.5237532,0.006273206,0.9697599,0.8254809
36.70121,0.7780523,-0.06979142,0.9697599,0.8319401
36.74954,0.5237532,-0.1023928,0.9697599,0.8254809
36.80038,0.6509008,-0.2653919,0.9697599,0.8254809
36.85035,0.6509008,-0.4066594,0.9697599,0.8254809
36.90044,0.6509008,-0.5153174,0.9697599,0.8319401
36.95044,0.6509008,-0.5587886,0.9697599,0.8254809
37.0002,0.6509008,-0.6565849,0.9697599,0.8254809
37.05121,96.77527,-0.7652509,0.9697599,0.8319401
37.09956,87.36626,-0.8195839,0.9697599,0.8254809
37.14955,83.80611,-0.9173802,0.9697599,0.8254809
37.20065,81.00883,-1.156444,0.9697599,0.8254809
37.25042,79.86449,-1.352036,0.9697599,0.8254809
37.30117,85.20473,-1.438971,0.9697599,0.8319401
37.34954,102.7513,-1.417239,0.9699246,0.8319401
37.39954,123.9851,-1.460702,0.9699246,0.8254809
37.45068,113.1774,-1.482434,0.9699246,0.8254809
37.49943,94.99519,-1.471572,0.9697599,0.8254809
37.5512,82.28033,-1.536767,0.9699246,0.8254809
37.59962,85.20473,-1.569368,0.9697599,0.8254809
37.6505,96.13953,-1.5911,0.9697599,0.8254809
37.70141,99.44539,-1.60197,0.9697599,0.8254809
37.7502,92.7065,-1.547637,0.9697599,0.8254809
37.8015,88.25631,-1.5911,0.9697599,0.8319401
37.84953,84.95044,-1.580238,0.9697599,0.8254809
37.90031,81.89888,-1.612832,0.9697599,0.8254809
37.95128,81.77173,-1.645433,0.9697599,0.8254809
37.99966,85.58618,-1.667165,0.9697599,0.8254809
38.05054,127.6724,-1.667165,0.9697599,0.8254809
38.10028,119.9163,-1.612832,0.9697599,0.8254809
38.1502,99.57254,-1.569368,0.9699246,0.8254809
38.20079,85.33189,-1.547637,0.9697599,0.8254809
38.24952,83.42466,-1.504174,0.9697599,0.8254809
38.3008,96.90242,-1.330305,0.9697599,0.8254809
38.34969,99.19109,-1.080379,0.9699246,0.8254809
38.39941,95.12233,-0.92825,0.9697599,0.8254809
38.45064,89.2735,-0.7435193,0.9697599,0.8254809
38.49952,85.96764,-0.5696504,0.9697599,0.8254809
38.5508,83.29751,-0.428391,0.9697599,0.8254809
38.59951,81.64457,-0.3740579,0.9699246,0.8254809
38.64967,91.18073,-0.2545221,0.9699246,0.8254809
38.7008,124.1122,-0.08066124,0.9697599,0.8254809
38.74981,125.7652,0.1910039,0.9697599,0.8254809
38.80102,105.0399,0.2670685,0.9697599,0.8254809
38.84954,90.16354,0.3322633,0.9695953,0.8254809
38.90041,82.28033,0.4409294,0.9697599,0.8254809
38.95145,92.7065,0.5495954,0.9697599,0.8319401
39.00032,99.57254,0.6365299,0.9697599,0.8254809
39.05159,100.7169,0.7343261,0.9697599,0.8254809
39.10044,99.19109,0.7995209,0.9699246,0.8254809
39.1498,88.38345,0.8538539,0.9699246,0.8254809
39.20107,85.58618,0.8647237,0.9697599,0.8254809
39.24994,84.95044,0.8538539,0.9697599,0.8254809
39.30156,83.80611,0.9081869,0.9697599,0.8319401
39.35051,103.1327,1.038585,0.9697599,0.8254809
39.40031,125.2566,1.038585,0.9699246,0.8254809
39.45114,116.3562,1.027723,0.9697599,0.8254809
39.4998,95.88522,0.9842516,0.9697599,0.8254809
39.55107,82.66177,0.9625199,0.9697599,0.8254809
39.59978,85.96764,0.8538539,0.9699246,0.8254809
39.64994,99.44539,0.7560577,0.9699246,0.8254809
39.70044,100.4626,0.6908628,0.9697599,0.8190217
39.75058,93.2151,0.7017246,0.9697599,0.8254809
39.80063,88.7649,0.5930586,0.9697599,0.8254809
39.84994,85.71333,0.4843926,0.9697599,0.8254809
39.89978,83.04321,0.3865964,0.9697599,0.8254809
39.95076,83.93326,0.3322633,0.9697599,0.8254809
39.99956,115.339,0.2561987,0.9697599,0.8254809
40.05055,127.2909,0.1910039,0.9699246,0.8254809
40.1006,115.8476,0.1910039,0.9697599,0.8254809
40.14944,102.7513,0.1475326,0.9697599,0.8254809
40.20159,85.96764,0.017135,0.9697599,0.8254809
40.24976,84.95044,-0.1023928,0.9697599,0.8254809
40.30082,99.31824,-0.1893273,0.9699246,0.8254809
40.34962,100.9712,-0.1567259,0.9699246,0.8190217
40.40044,95.75809,-0.2871235,0.9697599,0.8254809
40.45131,89.90925,-0.3849197,0.9697599,0.8254809
40.49989,86.60338,-0.4501226,0.9697599,0.8254809
40.55106,83.80611,-0.5479188,0.9697599,0.8254809
40.59979,83.80611,-0.6674547,0.9697599,0.8254809
40.64957,99.95398,-0.7435193,0.9697599,0.8254809
40.70064,126.1466,-0.8413155,0.9699246,0.8319401
40.75044,126.7823,-0.8195839,0.9697599,0.8254809
40.80126,107.2015,-0.9065104,0.9697599,0.8254809
40.84964,90.79928,-0.9173802,0.9695953,0.8190217
40.89985,86.85767,-0.7869825,0.9697599,0.8254809
40.95089,96.13953,-0.5805202,0.9697599,0.8254809
40.99944,101.3526,-0.428391,0.9697599,0.8254809
41.05151,101.6069,-0.2327905,0.9697599,0.8254809
41.10001,91.18073,0.02800481,0.9697599,0.8254809
41.14952,88.5106,0.2453369,0.9699246,0.8190217
41.20063,85.33189,0.3214015,0.9697599,0.8254809
41.2499,84.18755,0.3865964,0.9697599,0.8254809
41.30064,83.04321,0.4952624,0.9699246,0.8254809
41.35056,86.85767,0.7234563,0.9699246,0.8254809
41.39943,123.9851,0.8212605,0.9697599,0.8254809
41.45045,126.7823,0.9081869,0.9699246,0.8190217
41.50056,100.4626,0.9842516,0.9697599,0.8254809
41.55068,86.85767,1.114649,0.9697599,0.8254809
41.60018,86.73053,1.136389,0.9699246,0.8254809
41.65001,98.80965,1.147251,0.9697599,0.8190217
41.70101,101.4798,1.201584,0.9697599,0.8254809
41.74938,102.6241,1.408046,0.9699246,0.8254809
41.80039,91.56216,1.342851,0.9699246,0.8577767
41.85001,88.7649,1.321111,0.9695953,0.8577767
41.89974,86.85767,1.321111,0.9697599,0.8513175
41.95064,84.569,1.342851,0.9697599,0.8448583
41.99951,86.73053,1.223315,0.9697599,0.8383992
42.05044,99.06393,1.15812,0.9699246,0.8254809
42.1005,126.4009,1.15812,0.9697599,0.8190217
42.15001,122.5864,1.168982,0.9699246,0.7608892
42.20126,98.80965,1.082056,0.9699246,0.7802668
42.24973,87.62056,0.9842516,0.9697599,0.8190217
42.30078,90.41783,0.8755855,0.9697599,0.8190217
42.34962,100.3354,0.9625199,0.9697599,0.8190217
42.39965,103.0055,0.7995209,0.9699246,0.8190217
42.45076,98.80965,0.7017246,0.9699246,0.8319401
42.50063,91.56216,0.6147902,0.9697599,0.8577767
42.55055,88.7649,0.6039284,0.9697599,0.8577767
42.60055,86.34908,0.4409294,0.9699246,0.8448583
42.65055,85.71333,0.2888001,0.9697599,0.8383992
42.70076,91.94361,0.1692643,0.9697599,0.8319401
42.74955,118.5177,0.2018657,0.9700893,0.8254809
42.80079,123.3493,0.08233783,0.9697599,0.8190217
42.85025,110.1259,-0.0154584,0.9697599,0.7544301
42.9001,93.08795,-0.1241244,0.9697599,0.793185
42.95103,88.38345,-0.2219287,0.9697599,0.8190217
42.99976,98.80965,-0.3197249,0.9697599,0.8190217
43.05099,103.0055,-0.428391,0.9697599,0.8190217
43.10055,104.1499,-0.4718542,0.9697599,0.8254809
43.1503,93.08795,-0.5696504,0.9697599,0.8448583
43.20142,90.03638,-0.6783165,0.9697599,0.8513175
43.24998,89.2735,-0.8304457,0.9697599,0.8448583
43.3007,86.09478,-1.036908,0.9697599,0.8383992
43.35037,92.19792,-1.091241,0.9697599,0.8319401
43.4003,113.8132,-1.167306,0.9697599,0.8319401
43.4515,127.2909,-1.189045,0.9697599,0.8190217
43.49979,109.9987,-1.221639,0.9697599,0.7738075
43.5505,96.77527,-1.26511,0.9697599,0.7608892
43.60025,88.7649,-1.352036,0.9697599,0.8190217
43.65026,97.28386,-1.417239,0.9697599,0.8190217
43.70123,102.6241,-1.428101,0.9697599,0.8190217
43.75003,103.387,-1.384638,0.9697599,0.8254809
43.8013,93.08795,-1.362906,0.9697599,0.8319401
43.85001,89.5278,-1.384638,0.9699246,0.8383992
43.89963,86.47623,-1.395508,0.9697599,0.8383992
43.95077,84.95044,-1.471572,0.9697599,0.8383992
44.00054,84.95044,-1.525905,0.9699246,0.8319401
44.05054,99.57254,-1.536767,0.9697599,0.8319401
44.1003,126.7823,-1.504174,0.9699246,0.8254809
44.1503,122.9679,-1.449841,0.9697599,0.8125626
44.20147,98.80965,-1.449841,0.9699246,0.7738075
44.24981,89.14634,-1.471572,0.9697599,0.7996442
44.30042,87.87486,-1.471572,0.9699246,0.8190217
44.35029,99.57254,-1.406369,0.9697599,0.8190217
44.40029,102.3698,-1.384638,0.9697599,0.8190217
44.45154,94.99519,-1.341174,0.9697599,0.8513175
44.50021,91.05358,-1.308573,0.9697599,0.8577767
44.55154,88.38345,-1.25424,0.9697599,0.8383992
44.60027,85.20473,-1.330305,0.9697599,0.8383992
44.65025,85.71333,-1.330305,0.9697599,0.8319401
44.70084,90.67213,-1.319443,0.9697599,0.8190217
44.75056,126.4009,-1.297703,0.9697599,0.8061033
44.80049,123.2222,-1.362906,0.9697599,0.7479709
44.84974,104.9128,-1.362906,0.9697599,0.7996442
44.90015,91.05358,-1.384638,0.9697599,0.8190217
44.95096,85.96764,-1.417239,0.9699246,0.8190217
44.99953,98.42819,-1.438971,0.9697599,0.8190217
45.05054,101.8612,-1.471572,0.9699246,0.8254809
45.10054,101.3526,-1.493304,0.9695953,0.8448583
45.15054,90.67213,-1.460702,0.9697599,0.8513175
45.20053,87.11198,-1.395508,0.9697599,0.8448583
45.24974,85.96764,-1.286842,0.9699246,0.8383992
45.30046,84.82329,-1.134712,0.9697599,0.8319401
45.35041,111.7788,-0.8413155,0.9697599,0.8190217
45.40054,124.748,-0.5479188,0.9697599,0.7738075
45.45136,119.7892,-0.3740579,0.9697599,0.7673484
45.49971,96.13953,-0.1675957,0.9697599,0.8125626
45.55158,84.69615,0.006273206,0.9697599,0.8190217
45.59996,87.62056,0.1692643,0.9699246,0.8190217
45.64986,99.19109,0.2888001,0.9699246,0.8190217
45.70085,100.3354,0.3974662,0.9695953,0.8190217
45.74978,98.6825,0.5821968,0.9697599,0.8190217
45.801,89.2735,0.5821968,0.9697599,0.8254809
45.84994,85.71333,0.6365299,0.9697599,0.8190217
45.90002,84.95044,0.7125944,0.9697599,0.8190217
45.95141,93.46941,0.8212605,0.9697599,0.8383992
46.00028,121.5692,0.8973252,0.9697599,0.8383992
46.05153,124.4937,0.9733897,0.9697599,0.8448583
46.10027,100.3354,1.103787,0.9697599,0.8448583
46.15041,85.20473,1.190714,0.9699246,0.8383992
46.20053,82.15317,1.234185,0.9697599,0.8319401
46.25053,94.10515,1.321111,0.9697599,0.8254809
46.30151,97.66531,1.353713,0.9697599,0.8190217
46.34995,98.80965,1.49498,0.9699246,0.7673484
46.4,90.79928,1.397184,0.9695953,0.7673484
46.45162,88.00201,1.29938,0.9697599,0.8125626
46.50052,84.0604,1.212453,0.9695953,0.8125626
46.55053,91.81647,1.212453,0.9697599,0.8125626
46.60052,118.1362,1.114649,0.9697599,0.8190217
46.65026,125.2566,1.005991,0.9697599,0.8190217
46.7005,108.4729,0.9407883,0.9697599,0.8190217
46.75028,91.56216,0.9407883,0.9697599,0.8254809
46.80138,83.42466,0.7886591,0.9697599,0.8513175
46.84978,91.56216,0.679993,0.9699246,0.8448583
46.89976,99.57254,0.6147902,0.9697599,0.8448583
46.95132,100.4626,0.5930586,0.9697599,0.8448583
46.9999,95.37663,0.462661,0.9697599,0.8254809
47.05126,88.38345,0.2779303,0.9699246,0.8254809
47.10003,84.569,0.1475326,0.9697599,0.8061033
47.1496,83.67896,0.06060623,0.9697599,0.7544301
47.2009,111.5245,-0.08066124,0.9695953,0.7802668
47.24961,117.7548,-0.2001891,0.9697599,0.8125626
47.3009,113.1774,-0.2871235,0.9697599,0.8190217
47.3496,98.30104,-0.2871235,0.9697599,0.8125626
47.4006,85.20473,-0.4392528,0.9697599,0.8190217
47.45055,86.85767,-0.5696504,0.9697599,0.8190217
47.50035,97.66531,-0.6348532,0.9697599,0.8190217
47.55101,100.3354,-0.6565849,0.9697599,0.8319401
47.59977,94.74089,-0.7326494,0.9697599,0.8448583
47.64989,89.5278,-0.8195839,0.9697599,0.8448583
47.7014,86.73053,-0.9825749,0.9697599,0.8448583
47.75008,84.18755,-1.156444,0.9699246,0.8319401
47.80109,90.79928,-1.275972,0.9699246,0.8254809
47.84961,119.662,-1.308573,0.9697599,0.8125626
47.8996,128.8167,-1.308573,0.9699246,0.7802668
47.95173,112.6688,-1.330305,0.9697599,0.7608892
48.00052,96.13953,-1.373776,0.9697599,0.8061033
48.0516,86.09478,-1.449841,0.9697599,0.8125626
48.10035,92.32506,-1.471572,0.9697599,0.8190217
48.14994,99.44539,-1.471572,0.9697599,0.8125626
48.20111,100.844,-1.482434,0.9697599,0.8190217
48.24961,92.7065,-1.449841,0.9697599,0.8125626
48.30072,88.00201,-1.471572,0.9697599,0.8190217
48.34994,85.20473,-1.547637,0.9697599,0.8125626
48.4001,83.29751,-1.667165,0.9697599,0.8190217
48.45115,98.42819,-1.743229,0.9796425,0.8190217
48.49971,127.2909,-1.754099,0.9798071,0.8125626
48.55094,126.1466,-1.710636,0.9798071,0.8190217
48.59975,103.387,-1.678034,0.9796425,0.8254809
48.64975,89.2735,-1.5911,0.9798071,0.8383992
48.70102,84.82329,-1.515035,0.9798071,0.8513175
48.74958,92.19792,-1.319443,0.9798071,0.8448583
48.80054,98.80965,-1.102111,0.9798071,0.8383992
48.85054,100.7169,-0.8739169,0.9798071,0.8319401
48.90054,92.7065,-0.6674547,0.9796425,0.8254809
48.95147,89.14634,-0.4066594,0.9796425,0.8190217
49.00047,85.33189,-0.1893273,0.9798071,0.7802668
49.0514,82.91606,-0.06979142,0.9798071,0.7544301
49.10001,85.20473,0.1692643,0.9798071,0.7996442
49.14993,113.5589,0.3757345,0.9799718,0.8125626
49.20076,127.2909,0.5278638,0.9798071,0.8125626
49.24953,126.1466,0.6365299,0.9796425,0.8125626
49.30132,93.46941,0.7451879,0.9798071,0.8190217
49.34959,82.91606,0.9625199,0.9798071,0.8190217
49.40024,86.98483,1.016853,0.9796425,0.8319401
49.45138,98.42819,1.15812,0.9796425,0.8448583
49.50002,100.3354,1.288518,0.9798071,0.8448583
49.55083,95.75809,1.440647,0.9798071,0.8448583
49.59955,90.41783,1.49498,0.9798071,0.8319401
49.64951,87.23911,1.505842,0.9796425,0.8190217
49.70101,84.569,1.560175,0.9796425,0.8190217
49.75071,83.67896,1.690573,0.9798071,0.793185
49.80149,102.6241,1.712312,0.9796425,0.7479709
49.85001,124.8751,1.734044,0.9796425,0.7996442
49.89996,121.315,1.777507,0.9796425,0.8125626
49.9512,101.4798,1.777507,0.9796425,0.8125626
50.00071,83.80611,1.701443,0.9798071,0.8190217
50.05071,84.0604,1.614508,0.9796425,0.8190217
50.10068,98.42819,1.668841,0.9796425,0.8383992
50.15051,100.3354,1.581907,0.9798071,0.8513175
50.20151,100.3354,1.429778,0.9796425,0.8448583
50.24996,89.5278,1.353713,0.9798071,0.8383992
50.30096,87.62056,1.288518,0.9796425,0.8319401
50.34969,85.07759,1.29938,0.9798071,0.8190217
50.39975,84.569,1.125519,0.9798071,0.7996442
50.451,95.37663,1.038585,0.9796425,0.7544301
50.49976,127.2909,1.016853,0.9798071,0.7802668
50.551,126.1466,0.9951214,0.9796425,0.8125626
50.59975,95.50377,0.8864553,0.9796425,0.8125626
50.6507,84.569,0.7669275,0.9798071,0.8190217
50.70101,86.85767,0.6365299,0.9798071,0.8190217
50.75,99.19109,0.62566,0.9798071,0.8319401
50.80073,100.3354,0.4409294,0.9798071,0.8448583
50.85075,100.844,0.2670685,0.9798071,0.8448583
50.90075,90.92643,0.1040694,0.9796425,0.8383992
50.95123,88.38345,0.017135,0.9798071,0.8383992
51.00069,84.69615,-0.1567259,0.9798071,0.8254809
51.05146,84.18755,-0.3197249,0.9798071,0.8190217
51.10026,105.8028,-0.4066594,0.9798071,0.8061033
51.15025,126.7823,-0.5044556,0.9699246,0.7608892
51.20058,123.2222,-0.6348532,0.9697599,0.7738075
51.25021,103.7684,-0.7761127,0.9697599,0.8061033
51.30149,86.73053,-0.9499816,0.9697599,0.8125626
51.35022,85.96764,-1.047778,0.9697599,0.8125626
51.40023,97.66531,-1.167306,0.9697599,0.8125626
51.451,100.3354,-1.243378,0.9697599,0.8125626
51.49975,94.99519,-1.308573,0.9697599,0.8125626
51.55112,90.03638,-1.395508,0.9697599,0.8125626
51.60075,87.36626,-1.460702,0.9697599,0.8125626
51.64959,84.18755,-1.60197,0.9697599,0.8125626
51.70093,88.25631,-1.678034,0.9697599,0.8190217
51.75075,103.387,-1.688904,0.9699246,0.8125626
51.80148,128.8167,-1.667165,0.9697599,0.8125626
51.84954,125.2566,-1.678034,0.9697599,0.8125626
51.90046,100.5897,-1.678034,0.9697599,0.8125626
51.95145,88.00201,-1.623701,0.9697599,0.8190217
51.99958,88.00201,-1.547637,0.9697599,0.8125626
52.05144,99.44539,-1.395508,0.9699246,0.8190217
52.10023,101.9884,-1.102111,0.9697599,0.8125626
52.15034,101.8612,-0.8521773,0.9697599,0.8125626
52.2007,90.41783,-0.6891863,0.9695953,0.8190217
52.25048,88.38345,-0.537057,0.9697599,0.8125626
52.3016,85.33189,-0.4175211,0.9695953,0.8190217
52.35034,84.569,-0.2001891,0.9697599,0.8125626
52.40045,90.79928,0.017135,0.9699246,0.8125626
52.45061,127.7995,0.2670685,0.9697599,0.8190217
52.49994,119.7892,0.4300676,0.9699246,0.8125626
52.55112,101.4798,0.571327,0.9697599,0.8190217
52.60074,88.7649,0.6691232,0.9697599,0.8190217
52.6502,87.11198,0.7777893,0.9695953,0.8125626
52.70024,101.2255,0.8755855,0.9697599,0.8125626
52.75158,102.8784,1.038585,0.9697599,0.8190217
52.80066,103.1327,1.147251,0.9697599,0.8125626
52.84986,91.18073,1.266786,0.9697599,0.8125626
52.90004,88.38345,1.353713,0.9697599,0.8125626
52.95,85.71333,1.484111,0.9699246,0.8125626
53.00104,87.87486,1.473249,0.9697599,0.8190217
53.05074,99.57254,1.49498,0.9697599,0.8125626
53.10074,126.9095,1.549313,0.9697599,0.8190217
53.15058,125.2566,1.560175,0.9697599,0.8125626
53.20044,94.2323,1.484111,0.9697599,0.8125626
53.25135,86.47623,1.473249,0.9697599,0.8190217
53.30004,87.49342,1.364583,0.9695953,0.8190217
53.34987,100.3354,1.342851,0.9699246,0.8125626
53.4008,102.6241,1.190714,0.9695953,0.8190217
53.45034,102.2427,1.092918,0.9697599,0.8125626
53.50072,91.56216,0.9842516,0.9697599,0.8125626
53.55036,88.5106,0.9299185,0.9697599,0.8125626
53.59989,85.58618,0.7125944,0.9697599,0.8125626
53.65067,88.5106,0.5061322,0.9697599,0.8190217
53.69983,108.4729,0.3974662,0.9697599,0.8125626
53.75092,127.2909,0.3322633,0.9697599,0.8125626
53.79966,110.6345,0.2018657,0.9796425,0.8125626
53.84986,94.99519,0.02800481,0.9796425,0.8125626
53.89999,85.71333,-0.1132627,0.9798071,0.8125626
53.94969,92.96081,-0.1458561,0.9798071,0.8125626
54.00111,101.9884,-0.2762537,0.9798071,0.8125626
54.04999,102.3698,-0.3740579,0.9798071,0.8125626
54.09969,94.2323,-0.4501226,0.9796425,0.8125626
54.15068,90.41783,-0.5587886,0.9796425,0.8125626
54.20071,86.85767,-0.7326494,0.9798071,0.8190217
54.25186,86.22193,-0.9499816,0.9796425,0.8125626
54.30071,89.14634,-1.069509,0.9798071,0.8190217
54.35064,111.5245,-1.123842,0.9798071,0.8125626
54.40042,127.2909,-1.199907,0.9796425,0.8125626
54.45045,110.7616,-1.297703,0.9798071,0.8190217
54.50071,96.13953,-1.406369,0.9798071,0.8125626
54.55071,86.85767,-1.460702,0.9796425,0.8190217
54.60067,92.57936,-1.536767,0.9796425,0.8125626
54.65045,101.0983,-1.580238,0.9796425,0.8190217
54.70071,102.6241,-1.623701,0.9796425,0.8125626
54.75188,93.34225,-1.645433,0.9798071,0.8190217
54.80071,90.03638,-1.667165,0.9798071,0.8125626
54.85009,87.11198,-1.688904,0.9796425,0.8125626
54.90086,84.0604,-1.808432,0.9798071,0.8190217
54.95086,87.23911,-1.7867,0.9798071,0.8125626
55.00072,121.5692,-1.721498,0.9798071,0.8125626
55.04998,128.4353,-1.504174,0.9796425,0.8125626
55.09996,112.0331,-1.123842,0.9798071,0.8125626
55.1498,99.19109,-0.9173802,0.9798071,0.8125626
55.19971,86.60338,-0.7435193,0.9798071,0.8125626
55.25174,86.47623,-0.5479188,0.9798071,0.8190217
55.30035,99.95398,-0.3414565,0.9796425,0.8125626
55.35054,102.2427,-0.1241244,0.9798071,0.8125626
55.40051,94.99519,0.08233783,0.9798071,0.8125626
55.45015,90.41783,0.2235973,0.9796425,0.8190217
55.50146,87.23911,0.3322633,0.9796425,0.8125626
55.55035,84.18755,0.462661,0.9796425,0.8125626
55.60032,83.80611,0.516994,0.9798071,0.8125626
55.65017,88.12916,0.6039284,0.9798071,0.8125626
55.70049,116.3562,0.7125944,0.9798071,0.8125626
55.75171,125.3837,0.8755855,0.9798071,0.8190217
55.80049,103.7684,0.9733897,0.9798071,0.8125626
55.85017,89.2735,1.060316,0.9796425,0.8125626
55.90016,84.3147,1.15812,0.9798071,0.8190217
55.94969,95.50377,1.408046,0.9798071,0.8125626
56.00108,100.7169,1.429778,0.9798071,0.8190217
56.0508,101.3526,1.462379,0.9798071,0.8190217
56.1007,92.7065,1.549313,0.9796425,0.8125626
56.15084,89.2735,1.581907,0.9798071,0.8125626
56.19991,86.09478,1.560175,0.9798071,0.8125626
56.25114,84.18755,1.473249,0.9798071,0.8125626
56.30028,84.95044,1.418916,0.9796425,0.8125626
56.35034,121.0607,1.451509,0.9796425,0.8125626
56.40016,126.0195,1.418916,0.9798071,0.8125626
56.44997,112.2874,1.288518,0.9798071,0.8125626
56.50095,91.43503,1.179852,0.9798071,0.8190217
56.55083,83.67896,1.168982,0.9798071,0.8125626
56.60082,92.83366,1.092918,0.9798071,0.8125626
56.65067,100.3354,0.9951214,0.9798071,0.8125626
56.69981,101.0983,0.9190567,0.9796425,0.8125626
56.75068,91.94361,0.8538539,0.9798071,0.8125626
56.80048,89.14634,0.6473916,0.9798071,0.8125626
56.85043,86.34908,0.4409294,0.9796425,0.8190217
56.90007,83.42466,0.2670685,0.9796425,0.8125626
56.94992,84.95044,0.1801341,0.9798071,0.8125626
57.001,111.7788,0.017135,0.9799718,0.8125626
57.05042,126.9095,-0.08066124,0.9798071,0.8125626
57.10017,107.71,-0.1241244,0.9796425,0.8125626
57.14993,92.96081,-0.2436603,0.9798071,0.8125626
57.1998,84.95044,-0.4175211,0.9798071,0.8125626
57.25105,86.09478,-0.5479188,0.9798071,0.8125626
57.30069,92.57936,-0.6348532,0.9798071,0.8125626
57.35056,101.2255,-0.6891863,0.9796425,0.8125626
57.40057,92.7065,-0.8630471,0.9798071,0.8190217
57.45029,88.7649,-1.004315,0.9798071,0.8125626
57.50122,85.33189,-1.221639,0.9798071,0.8125626
57.54998,83.29751,-1.438971,0.9798071,0.8125626
57.59995,95.37663,-1.699766,0.9799718,0.8190217
57.65009,121.4421,-1.851895,0.9796425,0.8125626
57.69992,126.2737,-1.873627,0.9798071,0.8125626
57.75118,108.9815,-1.884497,0.9798071,0.8190217
57.79966,93.59654,-1.906228,0.9796425,0.8125626
57.85067,85.20473,-1.93883,0.9798071,0.8125626
57.90009,91.56216,-1.960561,0.9798071,0.8125626
57.94966,99.57254,-1.895367,0.9796425,0.8125626
58.00065,100.9712,-1.797562,0.9798071,0.8125626
58.05066,91.94361,-1.721498,0.9798071,0.8125626
58.10042,87.62056,-1.471572,0.9796425,0.8125626
58.15029,85.07759,-1.319443,0.9796425,0.8190217
58.20033,82.53461,-1.297703,0.9798071,0.8125626
58.25146,83.04321,-1.297703,0.9798071,0.8190217
58.29993,104.1499,-1.156444,0.9796425,0.8125626
58.34968,126.9095,-0.8413155,0.9798071,0.8125626
58.39967,107.71,-0.6348532,0.9796425,0.8125626
58.44968,99.95398,-0.482724,0.9798071,0.8125626
58.50069,84.569,-0.2979933,0.9798071,0.8125626
58.5508,91.18073,-0.08066124,0.9796425,0.8125626
58.60005,98.42819,0.1475326,0.9796425,0.8125626
58.64994,99.95398,0.2779303,0.9798071,0.8125626
58.70021,94.74089,0.4083279,0.9798071,0.8125626
58.75116,88.89205,0.571327,0.9798071,0.8125626
58.79993,85.58618,0.6582614,0.9697599,0.8125626
58.84994,83.04321,0.7234563,0.9697599,0.8125626
58.89967,82.66177,0.8429921,0.9697599,0.8125626
58.95046,111.906,1.038585,0.9697599,0.8125626
59.0017,124.748,1.201584,0.9697599,0.8190217
59.05064,122.205,1.353713,0.9697599,0.8125626
59.10013,97.28386,1.49498,0.9699246,0.8125626
59.15012,83.67896,1.592777,0.9697599,0.8125626
59.20021,84.569,1.625378,0.9699246,0.8125626
59.25145,92.96081,1.679711,0.9699246,0.8190217
59.29971,99.19109,1.723174,0.9697599,0.8125626
59.34976,99.57254,1.84271,0.9699246,0.8125626
59.40075,89.2735,1.82097,0.9697599,0.8125626
59.4502,85.96764,1.82097,0.9695953,0.8125626
59.50153,83.42466,1.788377,0.9697599,0.8190217
59.55033,82.66177,1.962238,0.9699246,0.8125626
59.6002,104.277,1.84271,0.9697599,0.8125626
59.65033,124.4937,1.734044,0.9697599,0.8125626
59.7002,120.0435,1.690573,0.9697599,0.8125626
59.75174,98.42819,1.625378,0.9697599,0.8190217
59.80055,84.95044,1.560175,0.9697599,0.8125626
59.85045,85.71333,1.462379,0.9697599,0.8125626
59.90039,98.1739,1.364583,0.9697599,0.8125626
59.94989,100.3354,1.397184,0.9697599,0.8125626
60.0012,99.06393,1.277648,0.9697599,0.8125626
60.04989,89.90925,1.179852,0.9697599,0.8125626
60.09987,86.47623,1.147251,0.9699246,0.8125626
60.15077,83.80611,1.005991,0.9697599,0.8125626
60.20042,83.04321,0.8864553,0.9697599,0.8125626
60.25116,85.20473,0.7777893,0.9697599,0.8125626
60.29987,126.0195,0.7343261,0.9699246,0.8125626
60.35068,123.7308,0.7125944,0.9697599,0.8125626
60.40072,99.95398,0.571327,0.9697599,0.8125626
60.45068,85.58618,0.4191978,0.9697599,0.8125626
60.50136,86.09478,0.2018657,0.9697599,0.8125626
60.54987,96.90242,0.1475326,0.9697599,0.8125626
60.60077,99.95398,-0.004596607,0.9697599,0.8125626
60.65081,99.95398,-0.1241244,0.9699246,0.8125626
60.70036,90.03638,-0.2871235,0.9697599,0.8125626
60.7517,87.23911,-0.3740579,0.9697599,0.8125626
60.80056,84.0604,-0.5696504,0.9697599,0.8190217
60.85041,82.53461,-0.7435193,0.9697599,0.8125626
60.90025,104.7856,-0.8521773,0.9697599,0.8125626
60.95088,125.2566,-0.8521773,0.9695953,0.8125626
61.00075,120.9335,-0.8413155,0.9699246,0.8125626
61.05017,102.8784,-0.8739169,0.9699246,0.8125626
61.10088,86.47623,-0.9065104,0.9697599,0.8190217
61.15065,84.95044,-0.9825749,0.9699246,0.8125626
61.20065,95.75809,-1.080379,0.9697599,0.8125626
61.25125,98.80965,-1.145574,0.9697599,0.8125626
61.30043,99.19109,-1.243378,0.9697599,0.8125626
61.35065,89.14634,-1.352036,0.9697599,0.8125626
61.40081,86.34908,-1.471572,0.9697599,0.8125626
61.45078,82.66177,-1.710636,0.9697599,0.8125626
61.50187,81.00883,-1.884497,0.9699246,0.8190217
61.55014,106.4386,-1.960561,0.9697599,0.8061033
61.60015,124.3665,-1.971431,0.9697599,0.8125626
61.65018,125.1294,-1.971431,0.9699246,0.8125626
61.70024,99.19109,-2.014894,0.9695953,0.8125626
61.75144,86.47623,-2.058357,0.9699246,0.8190217
61.79974,85.71333,-2.036626,0.9697599,0.8125626
61.84991,96.52097,-1.92796,0.9697599,0.8125626
61.89991,99.19109,-1.754099,0.9697599,0.8061033
61.95001,99.95398,-1.493304,0.9697599,0.8125626
62.00143,88.7649,-1.319443,0.9697599,0.8190217
62.05032,86.09478,-1.102111,0.9697599,0.8125626
62.10044,83.29751,-0.9065104,0.9695953,0.8125626
62.14987,81.39028,-0.7761127,0.9697599,0.8061033
62.19989,86.85767,-0.591382,0.9697599,0.8125626
62.25089,94.2323,-0.3631881,0.9697599,0.8125626
62.3009,124.8751,-0.1023928,0.9697599,0.8125626
62.35029,111.2702,0.1475326,0.9699246,0.8125626
62.40016,94.99519,0.2344671,0.9697599,0.8125626
62.44974,83.42466,0.3322633,0.9697599,0.8125626
62.50088,88.89205,0.4409294,0.9697599,0.8125626
62.55083,97.41101,0.6039284,0.9697599,0.8125626
62.59996,98.80965,0.7017246,0.9697599,0.8125626
62.65066,90.41783,0.7886591,0.9695953,0.8125626
62.70097,87.23911,0.9299185,0.9699246,0.8125626
62.75195,83.55181,0.9951214,0.9699246,0.8190217
62.80081,81.39028,1.027723,0.9697599,0.8125626
62.85062,82.28033,1.092918,0.9697599,0.8125626
62.90052,106.9472,1.136389,0.9699246,0.8125626
62.95053,123.2222,1.223315,0.9699246,0.8125626
63.00181,111.5245,1.255917,0.9699246,0.8125626
63.05046,94.2323,1.103787,0.9697599,0.8125626
63.10021,81.00883,1.049454,0.9697599,0.8125626
63.1499,83.80611,0.9951214,0.9697599,0.8061033
63.19997,96.52097,0.8973252,0.9697599,0.8061033
63.25104,98.04675,0.7777893,0.9697599,0.8125626
63.30067,92.19792,0.6908628,0.9695953,0.8125626
63.35063,87.62056,0.6365299,0.9697599,0.8125626
63.40076,85.20473,0.5278638,0.9697599,0.8125626
63.45052,82.15317,0.3539949,0.9697599,0.8125626
63.5018,82.02603,0.1692643,0.9697599,0.8125626
63.55015,101.8612,0.1584025,0.9699246,0.8125626
63.60001,123.6036,0.08233783,0.9695953,0.8061033
63.64989,122.4593,0.006273206,0.9697599,0.8125626
63.70013,101.2255,-0.1458561,0.9697599,0.8125626
63.75137,87.23911,-0.2653919,0.9699246,0.8125626
63.8003,83.04321,-0.3849197,0.9697599,0.8125626
63.8501,92.19792,-0.5153174,0.9697599,0.8125626
63.90031,98.04675,-0.6348532,0.9697599,0.8125626
63.94973,99.06393,-0.6674547,0.9697599,0.8061033
64.00188,87.36626,-0.7978523,0.9697599,0.8190217
64.05076,84.569,-0.9065104,0.9697599,0.8125626
64.1004,82.15317,-1.015176,0.9697599,0.8125626
64.14995,80.62739,-1.080379,0.9697599,0.8125626
64.20096,99.31824,-1.112981,0.9697599,0.8125626
64.25175,113.4317,-1.102111,0.9699246,0.8190217
64.30038,125.1294,-1.102111,0.9697599,0.8125626
64.34993,100.3354,-1.123842,0.9697599,0.8125626
64.40038,87.11198,-1.178175,0.9697599,0.8125626
64.45012,84.18755,-1.330305,0.9697599,0.8125626
64.50085,93.85085,-1.373776,0.9697599,0.8125626
64.54972,96.13953,-1.341174,0.9697599,0.8061033
64.59993,99.06393,-1.352036,0.9697599,0.8125626
64.65082,89.65494,-1.438971,0.9697599,0.8125626
64.69993,86.47623,-1.471572,0.9697599,0.8190217
64.75182,83.17036,-1.547637,0.9697599,0.8319401
64.7999,81.39028,-1.634571,0.9699246,0.8319401
64.84993,88.89205,-1.678034,0.9697599,0.8254809
64.90003,121.315,-1.699766,0.9697599,0.8254809
64.94984,125.2566,-1.645433,0.9697599,0.8254809
65.00112,105.8028,-1.656303,0.9697599,0.8254809
65.05092,92.19792,-1.645433,0.9697599,0.8254809
65.10092,84.44184,-1.645433,0.9697599,0.8190217
65.15038,90.41783,-1.656303,0.9697599,0.8125626
65.19989,95.75809,-1.667165,0.9697599,0.793185
65.25087,99.69969,-1.678034,0.9697599,0.7415117
65.30087,94.99519,-1.688904,0.9695953,0.793185
65.35092,88.5106,-1.688904,0.9699246,0.8061033
65.40009,84.95044,-1.721498,0.9697599,0.8061033
65.45113,82.02603,-1.7867,0.9697599,0.8125626
65.50111,82.91606,-1.819302,0.9699246,0.8125626
65.54987,100.3354,-1.764969,0.9697599,0.8125626
65.60047,124.3665,-1.667165,0.9699246,0.8383992
65.64993,116.6105,-1.536767,0.9697599,0.8513175
65.70142,97.28386,-1.406369,0.9697599,0.8383992
65.7514,84.569,-1.221639,0.9697599,0.8319401
65.79993,85.96764,-1.036908,0.9697599,0.8254809
65.84992,97.53816,-0.7761127,0.9697599,0.8125626
65.89992,98.80965,-0.6348532,0.9699246,0.8061033
65.95113,96.26666,-0.4501226,0.9697599,0.7673484
66.00092,88.63776,-0.3414565,0.9695953,0.7608892
66.0509,85.96764,-0.1893273,0.9695953,0.8061033
66.10084,82.53461,-0.06979142,0.9697599,0.8061033
66.15067,81.77173,0.0388666,0.9697599,0.8061033
66.20084,83.42466,0.1692643,0.9697599,0.8125626
66.25085,108.4729,0.2888001,0.9697599,0.8061033
66.30063,109.2358,0.4300676,0.9699246,0.8061033
66.35037,95.50377,0.5930586,0.9695953,0.8125626
66.40041,82.15317,0.6473916,0.9697599,0.8125626
66.45167,84.69615,0.7560577,0.9697599,0.8125626
66.5014,96.26666,0.7995209,0.9697599,0.8125626
66.54996,96.90242,0.9733897,0.9697599,0.8254809
66.60079,97.66531,1.060316,0.9699246,0.8448583
66.65015,87.87486,1.114649,0.9697599,0.8383992
66.70113,84.3147,1.136389,0.9697599,0.8319401
66.7512,82.15317,1.201584,0.9697599,0.8254809
66.7998,81.39028,1.168982,0.9699246,0.8061033
66.85091,100.7169,1.092918,0.9697599,0.7738075
66.9007,121.315,1.049454,0.9697599,0.7608892
66.95166,112.5417,1.049454,0.9697599,0.7996442
67.00166,92.57936,1.027723,0.9699246,0.8061033
67.05054,81.77173,0.8755855,0.9697599,0.8061033
67.10036,84.18755,0.8429921,0.9697599,0.8125626
67.15015,96.13953,0.7995209,0.9697599,0.8125626
67.20091,96.90242,0.7125944,0.9697599,0.8125626
67.25092,97.28386,0.6147902,0.9695953,0.8319401
67.30065,90.03638,0.516994,0.9697599,0.8448583
67.3505,85.71333,0.462661,0.9699246,0.8448583
67.40034,82.40748,0.3214015,0.9697599,0.8319401
67.45117,81.13599,0.2127355,0.9697599,0.8254809
67.50117,107.71,0.0388666,0.9697599,0.8125626
67.54978,123.4765,0.09319963,0.9699246,0.7867259
67.60362,117.5005,-0.04805982,0.9695953,0.7479709
67.64978,99.19109,-0.1567259,0.9697599,0.7802668
67.70112,86.73053,-0.2979933,0.9697599,0.8061033
67.75127,85.33189,-0.3523263,0.9697599,0.8061033
67.79991,96.13953,-0.428391,0.9697599,0.8061033
67.85085,98.30104,-0.5044556,0.9697599,0.8125626
67.90051,98.04675,-0.6022518,0.9699246,0.8061033
67.95158,87.49342,-0.6674547,0.9697599,0.8190217
68.00127,84.3147,-0.8413155,0.9697599,0.8254809
68.05003,82.53461,-1.058648,0.9699246,0.8383992
68.09991,86.73053,-1.189045,0.9697599,0.8383992
68.14978,120.1706,-1.25424,0.9697599,0.8383992
68.20084,124.748,-1.286842,0.9697599,0.8254809
68.25078,124.748,-1.362906,0.9697599,0.8190217
68.30051,97.15671,-1.438971,0.9697599,0.8125626
68.35033,85.71333,-1.482434,0.9699246,0.7802668
68.40026,88.38345,-1.558499,0.9697599,0.7479709
68.45151,98.80965,-1.60197,0.9697599,0.7996442
68.50115,99.82683,-1.634571,0.9695953,0.8061033
68.55003,93.08795,-1.645433,0.9697599,0.7996442
68.59991,87.87486,-1.656303,0.9697599,0.8061033
68.65002,85.96764,-1.710636,0.9697599,0.8061033
68.70133,82.78893,-1.808432,0.9699246,0.8190217
68.75098,84.18755,-1.830164,0.9697599,0.8190217
68.80061,112.5417,-1.841033,0.9697599,0.8383992
68.85014,123.9851,-1.764969,0.9697599,0.8383992
68.90002,105.5485,-1.634571,0.9695953,0.8383992
68.95122,94.61374,-1.438971,0.9699246,0.8319401
69.00102,87.49342,-1.286842,0.9697599,0.8254809
69.05049,91.68932,-1.123842,0.9699246,0.8061033
69.10049,99.57254,-0.9173802,0.9697599,0.7867259
69.15036,101.2255,-0.7217796,0.9697599,0.7479709
69.20164,92.19792,-0.5696504,0.9697599,0.7867259
69.25114,90.03638,-0.4718542,0.9697599,0.8061033
69.2999,87.62056,-0.3957896,0.9697599,0.8061033
69.35013,84.82329,-0.2436603,0.9695953,0.8061033
69.40015,90.79928,-0.05892963,0.9697599,0.8061033
69.4509,121.5692,0.09319963,0.9697599,0.8125626
69.50114,124.4937,0.2235973,0.9695953,0.8125626
69.5499,112.1602,0.4191978,0.9697599,0.8125626
69.5999,97.28386,0.4843926,0.9697599,0.8254809
69.64984,86.73053,0.5821968,0.9697599,0.8319401
69.70114,95.12233,0.6691232,0.9699246,0.8383992
69.75114,101.2255,0.8212605,0.9697599,0.8319401
69.7999,101.8612,0.8973252,0.9697599,0.8190217
69.85066,93.08795,0.9299185,0.9697599,0.8190217
69.90089,88.89205,0.9516582,0.9697599,0.8061033
69.95114,86.85767,1.016853,0.9695953,0.7867259
70.00114,86.60338,0.9951214,0.9699246,0.7544301
70.0499,90.67213,0.9407883,0.9697599,0.7867259
70.10056,118.3905,0.9190567,0.9697599,0.8061033
70.15046,125.638,0.8647237,0.9699246,0.7996442
70.20189,106.9472,0.8755855,0.9697599,0.8061033
70.25105,97.02956,0.6908628,0.9697599,0.8061033
70.29989,88.7649,0.6039284,0.9695953,0.8125626
70.35101,96.64812,0.5821968,0.9697599,0.8125626
70.39989,102.7513,0.4952624,0.9697599,0.8190217
70.45162,103.387,0.4409294,0.9699246,0.8383992
70.50159,93.08795,0.2996699,0.9697599,0.8383992
70.55043,91.05358,0.2888001,0.9695953,0.8383992
70.60039,88.25631,0.1475326,0.9697599,0.8319401
70.65033,87.36626,-0.06979142,0.9697599,0.8190217
70.70189,106.5657,-0.1458561,0.9697599,0.8125626
70.75201,127.0366,-0.1784575,0.9697599,0.7867259
70.80077,125.8923,-0.2436603,0.9697599,0.7544301
70.85063,105.6757,-0.3414565,0.9695953,0.7867259
70.90063,94.2323,-0.4718542,0.9699246,0.7996442
70.95201,91.56216,-0.5696504,0.9699246,0.8061033
71.00189,100.5897,-0.6022518,0.9697599,0.8061033
71.05007,103.1327,-0.7435193,0.9697599,0.8061033
71.10012,103.8956,-0.7978523,0.9697599,0.8061033
71.15014,93.85085,-0.8847787,0.9697599,0.8061033
71.20102,91.05358,-0.9717132,0.9697599,0.8125626
71.25206,89.14634,-1.134712,0.9699246,0.8190217
71.30062,87.62056,-1.330305,0.9697599,0.8319401
71.3506,92.07076,-1.362906,0.9697599,0.8319401
71.40073,118.3905,-1.406369,0.9697599,0.8383992
71.45169,128.3081,-1.384638,0.9697599,0.8319401
71.50127,112.796,-1.428101,0.9697599,0.8254809
71.55083,99.19109,-1.449841,0.9697599,0.8125626
71.60101,91.56216,-1.493304,0.9699246,0.7996442
71.65068,97.9196,-1.515035,0.9699246,0.7544301
71.70189,102.7513,-1.515035,0.9695953,0.7802668
71.75201,104.6585,-1.525905,0.9697599,0.8061033
71.80068,94.61374,-1.525905,0.9697599,0.8061033
71.85046,92.07076,-1.558499,0.9699246,0.7996442
71.90034,89.65494,-1.558499,0.9697599,0.8061033
71.95106,86.98483,-1.634571,0.9697599,0.8061033
72.00091,92.96081,-1.699766,0.9699246,0.8125626
72.05009,103.0055,-1.732367,0.9697599,0.8125626
72.10096,128.9439,-1.721498,0.9699246,0.8190217
72.15072,124.3665,-1.678034,0.9699246,0.8319401
72.20134,104.6585,-1.667165,0.9699246,0.8383992
72.25094,95.24948,-1.699766,0.9699246,0.8319401
72.30025,93.34225,-1.699766,0.9697599,0.8254809
72.35014,101.4798,-1.667165,0.9697599,0.8125626
72.39986,104.1499,-1.634571,0.9697599,0.8125626
72.45123,105.2942,-1.5911,0.9697599,0.793185
72.501,93.978,-1.493304,0.9695953,0.7479709
72.55074,92.45221,-1.395508,0.9697599,0.7867259
72.60033,89.78209,-1.26511,0.9697599,0.7996442
72.65026,88.12916,-1.199907,0.9699246,0.7996442
72.7014,88.12916,-1.080379,0.9697599,0.8061033
72.75143,94.61374,-0.8956485,0.9697599,0.8061033
72.80013,120.5521,-0.7326494,0.9697599,0.8061033
72.85101,128.8167,-0.5044556,0.9697599,0.8125626
72.90047,106.1843,-0.3305867,0.9697599,0.8190217
72.9516,92.19792,-0.1675957,0.9697599,0.8254809
73.00129,90.67213,0.0388666,0.9697599,0.8190217
73.04986,99.31824,0.1149393,0.9697599,0.8319401
73.10083,103.7684,0.2888001,0.9697599,0.8254809
73.1507,104.5313,0.4083279,0.9697599,0.8254809
73.20183,93.85085,0.5930586,0.9699246,0.8254809
73.25156,92.32506,0.6039284,0.9697599,0.8125626
73.29986,89.78209,0.6365299,0.9697599,0.7996442
73.34985,88.00201,0.7451879,0.9699246,0.7738075
73.39988,86.47623,0.7451879,0.9697599,0.7608892
73.45113,90.29069,0.8212605,0.9697599,0.7867259
73.50145,103.7684,0.8538539,0.9699246,0.8061033
73.54993,126.7823,0.9842516,0.9697599,0.7996442
73.60007,112.6688,0.9625199,0.9699246,0.8061033
73.65005,96.01237,0.9190567,0.9697599,0.8061033
73.70138,86.22193,0.8321223,0.9697599,0.8061033
73.7511,92.83366,0.8647237,0.9697599,0.8061033
73.80112,101.0983,0.7343261,0.9699246,0.8125626
73.85098,102.2427,0.6691232,0.9699246,0.8190217
73.90054,94.74089,0.5821968,0.9697599,0.8319401
73.95185,90.67213,0.5278638,0.9699246,0.8319401
74.00185,88.63776,0.5495954,0.9699246,0.8383992
74.05032,86.22193,0.3322633,0.9697599,0.8254809
74.09995,84.82329,0.1801341,0.9699246,0.8125626
74.15083,85.58618,0.0388666,0.9697599,0.8061033
74.20207,110.1259,0.02800481,0.9699246,0.7867259
74.25212,126.7823,-0.1023928,0.9699246,0.7544301
74.30042,103.8956,-0.2110589,0.9697599,0.7802668
74.35012,91.18073,-0.2979933,0.9697599,0.7996442
74.40024,85.96764,-0.4175211,0.9697599,0.7996442
74.45135,94.2323,-0.5153174,0.9699246,0.8061033
74.50096,99.57254,-0.6131216,0.9697599,0.8061033
74.55037,101.3526,-0.6783165,0.9697599,0.8061033
74.60032,92.83366,-0.7543811,0.9697599,0.8125626
74.65043,89.0192,-0.8630471,0.9699246,0.8254809
74.70182,86.47623,-0.9391118,0.9697599,0.8383992
74.7516,84.0604,-1.091241,0.9697599,0.8383992
74.80037,83.29751,-1.243378,0.9699246,0.8383992
74.85036,89.14634,-1.297703,0.9697599,0.8254809
74.90018,123.2222,-1.330305,0.9697599,0.8125626
74.95112,125.638,-1.319443,0.9697599,0.8061033
75.00111,101.4798,-1.384638,0.9697599,0.7802668
75.05112,88.63776,-1.438971,0.9699246,0.7479709
75.10111,87.49342,-1.471572,0.9699246,0.7867259
75.15023,93.08795,-1.515035,0.9697599,0.7996442
75.20136,97.79247,-1.493304,0.9699246,0.7996442
75.25107,100.2083,-1.504174,0.9699246,0.8061033
75.30082,91.81647,-1.504174,0.9697599,0.8061033
75.35053,88.38345,-1.482434,0.9697599,0.8061033
75.40045,85.58618,-1.536767,0.9697599,0.8125626
75.45136,83.67896,-1.634571,0.9697599,0.8254809
75.50129,89.2735,-1.721498,0.9697599,0.8319401
75.55099,111.5245,-1.732367,0.9697599,0.8254809
75.60043,129.4525,-1.721498,0.9697599,0.8319401
75.65036,122.3321,-1.688904,0.9697599,0.8254809
75.70155,99.95398,-1.667165,0.9699246,0.8190217
75.75163,87.49342,-1.645433,0.9699246,0.8061033
75.80024,88.5106,-1.5911,0.9697599,0.7867259
75.85011,98.9368,-1.449841,0.9699246,0.7479709
75.90024,101.6069,-1.297703,0.9695953,0.7738075
75.95181,95.88522,-1.123842,0.9697599,0.7996442
76.00136,90.41783,-0.92825,0.9699246,0.7996442
76.04996,87.74771,-0.7869825,0.9699246,0.7996442
76.09997,84.69615,-0.6565849,0.9695953,0.7996442
76.15082,83.42466,-0.5153174,0.9699246,0.8061033
76.20193,90.29069,-0.2653919,0.9699246,0.8125626
76.25159,105.93,-0.1241244,0.9697599,0.8254809
76.29993,126.4009,0.0388666,0.9697599,0.8383992
76.35078,116.1019,0.2453369,0.9697599,0.8319401
76.40033,96.01237,0.3648647,0.9699246,0.8319401
76.45161,86.60338,0.4843926,0.9699246,0.8254809
76.50158,93.08795,0.5387256,0.9699246,0.8190217
76.54993,99.95398,0.6908628,0.9697599,0.7996442
76.60084,101.4798,0.7995209,0.9697599,0.7867259
76.65023,93.72369,0.8755855,0.9697599,0.7479709
76.70181,90.41783,0.9081869,0.9697599,0.7738075
76.75159,87.23911,0.9951214,0.9697599,0.7996442
76.80036,85.20473,1.071186,0.9699246,0.7996442
76.85036,85.20473,1.114649,0.9697599,0.7996442
76.90018,107.3286,1.212453,0.9697599,0.7996442
76.95106,127.1638,1.223315,0.9697599,0.8061033
77.00093,119.0263,1.29938,0.9699246,0.8061033
77.05036,101.4798,1.245047,0.9697599,0.8125626
77.10035,85.45904,1.223315,0.9699246,0.8254809
77.15028,85.71333,1.147251,0.9697599,0.8319401
77.20148,99.06393,1.168982,0.9699246,0.8383992
77.25124,101.0983,0.9951214,0.9697599,0.8319401
77.30102,95.75809,0.8647237,0.9699246,0.8254809
77.35053,89.65494,0.7995209,0.9699246,0.8061033
77.40035,87.62056,0.679993,0.9699246,0.8061033
77.45165,85.20473,0.571327,0.9697599,0.7738075
77.5018,84.18755,0.4191978,0.9697599,0.7608892
77.55058,98.80965,0.3865964,0.9697599,0.7867259
77.60059,129.071,0.3214015,0.9697599,0.7996442
77.6506,127.4181,0.2670685,0.9697599,0.7996442
77.70181,99.06393,0.1801341,0.9697599,0.8061033
77.7513,86.47623,0.1040694,0.9697599,0.8061033
77.80007,87.49342,0.017135,0.9697599,0.8125626
77.84994,99.44539,-0.09153105,0.9697599,0.8125626
77.89994,100.844,-0.2110589,0.9697599,0.8190217
77.95208,95.88522,-0.2762537,0.9697599,0.8383992
78.00222,91.68932,-0.3197249,0.9699246,0.8383992
78.05085,88.89205,-0.482724,0.9697599,0.8254809
78.10092,86.09478,-0.6239834,0.9699246,0.8190217
78.15043,84.95044,-0.7435193,0.9697599,0.8125626
78.20132,108.9815,-0.7869825,0.9699246,0.8061033
78.25105,128.6896,-0.9065104,0.9699246,0.7738075
78.30104,114.5761,-0.9825749,0.9697599,0.7544301
78.35104,102.8784,-1.058648,0.9697599,0.7867259
78.40122,88.7649,-1.156444,0.9697599,0.7996442
78.45124,89.5278,-1.243378,0.9699246,0.7996442
78.50122,99.44539,-1.319443,0.9695953,0.7996442
78.55052,101.3526,-1.352036,0.9697599,0.7996442
78.60035,98.42819,-1.362906,0.9699246,0.8061033
78.65058,91.56216,-1.438971,0.9697599,0.8125626
78.70222,88.25631,-1.460702,0.9697599,0.8254809
78.75103,85.96764,-1.558499,0.9697599,0.8319401
78.8003,87.23911,-1.634571,0.9695953,0.8319401
78.85005,106.82,-1.678034,0.9697599,0.8319401
78.90093,131.4868,-1.678034,0.9697599,0.8254809
78.95218,129.9611,-1.634571,0.9697599,0.8125626
79.00186,104.1499,-1.656303,0.9697599,0.8061033
79.05067,90.79928,-1.732367,0.9697599,0.7738075
79.10072,91.43503,-1.775831,0.9697599,0.7544301
79.15026,101.8612,-1.775831,0.9697599,0.7867259
79.20129,103.7684,-1.743229,0.9699246,0.7996442
79.25105,104.5313,-1.732367,0.9699246,0.7996442
79.3008,94.61374,-1.699766,0.9697599,0.7996442
79.35028,91.18073,-1.569368,0.9695953,0.8061033
79.40104,87.62056,-1.525905,0.9699246,0.8061033
79.45122,86.09478,-1.471572,0.9699246,0.8125626
79.50121,96.39381,-1.352036,0.9697599,0.8254809
79.55117,131.2325,-1.102111,0.9697599,0.8383992
79.6012,121.4421,-0.8087141,0.9697599,0.8448583
79.64996,102.6241,-0.6131216,0.9697599,0.8319401
79.70136,91.43503,-0.4501226,0.9699246,0.8190217
79.75142,90.79928,-0.2762537,0.9697599,0.8190217
79.8012,100.0811,-0.06979142,0.9699246,0.8061033
79.8512,102.6241,0.07146802,0.9699246,0.7867259
79.90119,99.31824,0.1910039,0.9695953,0.7479709
79.95213,94.48659,0.3757345,0.9697599,0.7802668
80.00171,91.94361,0.5604652,0.9699246,0.7996442
80.05042,88.5106,0.5495954,0.9695953,0.793185
80.10036,86.73053,0.5495954,0.9697599,0.7996442
80.15035,91.56216,0.6473916,0.9697599,0.7996442
80.20213,106.3114,0.8103907,0.9697599,0.8061033
80.25153,129.4525,0.8973252,0.9697599,0.8061033
80.30032,109.8716,0.9951214,0.9697599,0.8125626
80.35091,98.30104,1.147251,0.9695953,0.8254809
80.40084,87.23911,1.234185,0.9697599,0.8319401
80.4519,96.01237,1.277648,0.9697599,0.8319401
80.50183,102.8784,1.277648,0.9697599,0.8319401
80.55056,103.1327,1.331981,0.9695953,0.8190217
80.60033,101.2255,1.29938,0.9697599,0.8125626
80.65034,91.81647,1.212453,0.9697599,0.7996442
80.70184,89.5278,1.125519,0.9697599,0.7802668
80.75191,87.62056,1.038585,0.9697599,0.7544301
80.80042,87.49342,0.9407883,0.9697599,0.7738075
80.85002,89.14634,0.8212605,0.9697599,0.7996442
80.90003,127.1638,0.7451879,0.9697599,0.7996442
80.95178,127.2909,0.7343261,0.9697599,0.8061033
81.00133,97.66531,0.7343261,0.9699246,0.7996442
81.05096,87.23911,0.5930586,0.9697599,0.7996442
81.10083,89.40065,0.5061322,0.9697599,0.8125626
81.15083,101.0983,0.4083279,0.9697599,0.8190217
81.20204,103.0055,0.3757345,0.9697599,0.8383992
81.25201,103.0055,0.2018657,0.9699246,0.8319401
81.30058,92.57936,0.04973641,0.9697599,0.8319401
81.35056,90.54498,0.02800481,0.9697599,0.8254809
81.40112,87.23911,-0.1241244,0.9699246,0.8190217
81.45184,85.58618,-0.3523263,0.9699246,0.8125626
81.50205,91.05358,-0.482724,0.9699246,0.7996442
81.55003,112.9231,-0.537057,0.9695953,0.7544301
81.60114,129.5796,-0.482724,0.9699246,0.7544301
81.65105,111.6517,-0.5153174,0.9699246,0.793185
81.70107,97.66531,-0.5696504,0.9695953,0.7996442
81.75108,89.14634,-0.591382,0.9699246,0.7996442
81.80078,96.52097,-0.6674547,0.9697599,0.8061033
81.85006,101.9884,-0.7869825,0.9697599,0.7996442
81.90103,103.387,-0.8956485,0.9695953,0.8061033
81.95107,93.72369,-0.9391118,0.9699246,0.8061033
82.00203,91.05358,-1.015176,0.9697599,0.8125626
82.05053,88.7649,-1.156444,0.9697599,0.8190217
82.10107,86.09478,-1.330305,0.9697599,0.8383992
82.15083,86.34908,-1.438971,0.9697599,0.8254809
82.20177,97.53816,-1.449841,0.9697599,0.8319401
82.25195,113.3046,-1.460702,0.9699246,0.8190217
82.30051,112.9231,-1.482434,0.9697599,0.8125626
82.35082,105.2942,-1.460702,0.9697599,0.8061033
82.40082,90.03638,-1.460702,0.9697599,0.7867259
82.45183,90.29069,-1.482434,0.9697599,0.7544301
82.50182,99.95398,-1.482434,0.9699246,0.7738075
82.55055,102.7513,-1.438971,0.9697599,0.793185
82.60049,94.61374,-1.341174,0.9697599,0.793185
82.6503,91.68932,-1.243378,0.9697599,0.7996442
82.70183,88.7649,-1.123842,0.9695953,0.8061033
82.75128,85.71333,-1.069509,0.9697599,0.8061033
82.80093,84.0604,-0.9934448,0.9700893,0.8061033
82.85064,89.78209,-0.8413155,0.9697599,0.8061033
82.90011,122.9679,-0.6457151,0.9697599,0.8061033
82.95203,127.0366,-0.3740579,0.9697599,0.8061033
83.00203,105.5485,-0.1241244,0.9697599,0.8061033
83.05041,95.50377,-0.02632821,0.9697599,0.8061033
83.10042,86.47623,0.1366709,0.9697599,0.7996442
83.15118,95.37663,0.2670685,0.9697599,0.8061033
83.20128,100.2083,0.516994,0.9697599,0.8061033
83.25163,101.9884,0.4952624,0.9697599,0.8061033
83.30052,95.63092,0.5821968,0.9697599,0.8061033
83.35118,90.41783,0.679993,0.9697599,0.8061033
83.40062,88.38345,0.7560577,0.9697599,0.8061033
83.4515,84.95044,0.7995209,0.9697599,0.8061033
83.50101,85.33189,0.8103907,0.9697599,0.8061033
83.55077,110.1259,0.9625199,0.9697599,0.7996442
83.60069,126.7823,1.071186,0.9699246,0.8061033
83.65041,124.1122,1.114649,0.9697599,0.8061033
83.70182,98.42819,1.179852,0.9697599,0.8061033
83.75164,85.20473,1.223315,0.9697599,0.8061033
83.80006,87.11198,1.255917,0.9697599,0.7996442
83.85087,99.82683,1.234185,0.9697599,0.8061033
83.90039,100.7169,1.136389,0.9697599,0.8061033
83.95129,95.88522,1.103787,0.9697599,0.8061033
84.00144,91.81647,1.114649,0.9699246,0.8061033
84.0509,88.7649,0.9190567,0.9697599,0.7996442
84.10094,86.09478,0.7669275,0.9697599,0.8061033
84.15094,84.44184,0.62566,0.9697599,0.8061033
84.20169,107.4557,0.6473916,0.9699246,0.8061033
84.25207,123.6036,0.5278638,0.9697599,0.8061033
84.30069,126.9095,0.4083279,0.9695953,0.8061033
84.35069,104.277,0.3539949,0.9697599,0.7996442
84.40073,87.62056,0.2453369,0.9699246,0.8061033
84.45201,88.7649,0.09319963,0.9697599,0.8061033
84.50176,100.9712,-0.0154584,0.9697599,0.8061033
84.55051,103.7684,-0.08066124,0.9697599,0.8061033
84.60052,103.387,-0.1567259,0.9697599,0.8061033
84.65021,92.96081,-0.2762537,0.9697599,0.7996442
84.70168,90.67213,-0.4066594,0.9697599,0.8061033
84.75118,87.11198,-0.4718542,0.9697599,0.8061033
84.80006,85.96764,-0.6131216,0.9697599,0.8061033
84.85091,99.57254,-0.6891863,0.9697599,0.8061033
84.90106,129.5796,-0.7543811,0.9697599,0.7996442
84.95106,117.5005,-0.7543811,0.9697599,0.7996442
85.00162,100.3354,-0.7978523,0.9699246,0.8061033
85.05081,89.90925,-0.9499816,0.9697599,0.7996442
85.10093,91.43503,-1.080379,0.9697599,0.7996442
85.15106,101.8612,-1.167306,0.9697599,0.7996442
85.20221,104.0227,-1.178175,0.9697599,0.8061033
85.25211,103.7684,-1.243378,0.9699246,0.8061033
85.30051,94.61374,-1.341174,0.9697599,0.8061033
85.35054,90.79928,-1.352036,0.9697599,0.8061033
85.40054,87.74771,-1.460702,0.9697599,0.7996442
85.45138,86.85767,-1.536767,0.9796425,0.8061033
85.50127,116.229,-1.60197,0.9798071,0.8061033
85.55083,130.3425,-1.5911,0.9798071,0.8061033
85.60006,124.4937,-1.5911,0.9798071,0.7996442
85.65038,106.1843,-1.5911,0.9796425,0.7996442
85.70221,93.34225,-1.623701,0.9796425,0.8061033
85.75104,91.94361,-1.623701,0.9798071,0.8061033
85.8005,101.4798,-1.623701,0.9798071,0.8061033
85.85068,104.5313,-1.612832,0.9798071,0.7996442
85.90068,98.9368,-1.5911,0.9798071,0.7996442
85.95151,94.48659,-1.547637,0.9799718,0.7996442
86.00155,91.43503,-1.352036,0.9799718,0.8061033
86.05091,88.38345,-1.362906,0.9799718,0.8061033
86.10047,88.38345,-1.319443,0.9798071,0.8061033
86.1513,107.3286,-1.167306,0.9798071,0.7996442
86.20138,130.724,-0.8847787,0.9798071,0.8061033
86.25134,131.7411,-0.6891863,0.9796425,0.8061033
86.30124,107.0743,-0.5153174,0.9796425,0.7996442
86.35131,94.35944,-0.3088551,0.9798071,0.8061033
86.40018,91.43503,-0.2001891,0.9798071,0.7996442
86.452,101.9884,0.006273206,0.9798071,0.8061033
86.50205,105.93,0.1366709,0.9798071,0.8061033
86.5508,106.5657,0.2888001,0.9796425,0.8061033
86.60034,95.88522,0.4083279,0.9798071,0.7996442
86.65034,93.46941,0.4735308,0.9798071,0.7996442
86.70203,90.03638,0.5495954,0.9798071,0.8061033
86.75192,88.89205,0.5930586,0.9798071,0.8061033
86.80052,88.7649,0.6582614,0.9798071,0.8061033
86.85034,98.42819,0.7017246,0.9798071,0.8061033
86.90017,129.7068,0.7777893,0.9798071,0.7996442
86.95208,123.095,0.8755855,0.9796425,0.7996442
87.00217,99.06393,0.9951214,0.9798071,0.8061033
87.05086,88.5106,0.9842516,0.9798071,0.7996442
87.10059,93.72369,1.005991,0.9798071,0.7996442
87.15008,105.0399,1.005991,0.9798071,0.7996442
87.20226,105.93,1.027723,0.9798071,0.8061033
87.25214,106.1843,0.9299185,0.9798071,0.8061033
87.30092,95.88522,0.7886591,0.9798071,0.8061033
87.35092,93.2151,0.7343261,0.9798071,0.7996442
87.40031,90.29069,0.6365299,0.9796425,0.7996442
87.45152,89.2735,0.571327,0.9798071,0.8061033
87.50112,104.9128,0.5278638,0.9798071,0.7996442
87.55099,130.724,0.5930586,0.9798071,0.8061033
87.60104,129.5796,0.6582614,0.9798071,0.8061033
87.65092,116.1019,0.5387256,0.9798071,0.7996442
87.70215,96.26666,0.4517992,0.9798071,0.8061033
87.75204,90.29069,0.3105317,0.9798071,0.8061033
87.80065,100.5897,0.2127355,0.9798071,0.8061033
87.85012,105.2942,0.06060623,0.9796425,0.7996442
87.90047,105.93,0.04973641,0.9796425,0.7996442
87.95151,96.90242,0.08233783,0.9798071,0.8061033
88.0013,93.34225,0.1475326,0.9798071,0.8061033
88.05117,90.79928,0.04973641,0.9796425,0.8061033
88.10083,88.7649,-0.06979142,0.9798071,0.7996442
88.15035,92.96081,-0.1893273,0.9798071,0.7996442
88.20152,113.9403,-0.1893273,0.9798071,0.8061033
88.25213,131.8683,-0.2979933,0.9798071,0.8061033
88.30116,115.7204,-0.4392528,0.9796425,0.7996442
88.35104,102.6241,-0.5479188,0.9798071,0.8061033
88.40079,91.56216,-0.6674547,0.9798071,0.7996442
88.45147,96.52097,-0.7761127,0.9798071,0.7996442
88.5016,103.7684,-0.8521773,0.9798071,0.8061033
88.55029,107.2015,-0.8739169,0.9796425,0.7996442
88.60016,98.04675,-0.9391118,0.9798071,0.7996442
88.65105,94.61374,-1.004315,0.9798071,0.8061033
88.70146,90.67213,-1.069509,0.9798071,0.7996442
88.75125,88.7649,-1.156444,0.9798071,0.7996442
88.80124,88.00201,-1.210777,0.9798071,0.7996442
88.85077,103.0055,-1.362906,0.9798071,0.7996442
88.9004,131.1054,-1.438971,0.9798071,0.7996442
88.95149,132.3769,-1.438971,0.9798071,0.8061033
89.00224,112.9231,-1.449841,0.9798071,0.8061033
89.05097,98.04675,-1.536767,0.9796425,0.7996442
89.10078,90.92643,-1.634571,0.9798071,0.7996442
89.15074,100.7169,-1.656303,0.9798071,0.7996442
89.202,103.6413,-1.580238,0.9796425,0.8061033
89.25146,106.0571,-1.558499,0.9798071,0.8061033
89.30025,95.37663,-1.536767,0.9796425,0.7996442
89.35117,92.19792,-1.460702,0.9796425,0.7996442
89.40115,90.41783,-1.330305,0.9799718,0.8061033
89.45116,87.49342,-1.330305,0.9798071,0.8061033
89.50174,86.47623,-1.275972,0.9798071,0.8061033
89.55108,91.56216,-1.156444,0.9798071,0.7996442
89.60074,116.229,-0.9065104,0.9798071,0.7996442
89.65054,129.9611,-0.6783165,0.9798071,0.7996442
89.70177,108.0915,-0.482724,0.9798071,0.8061033
89.75185,93.72369,-0.3088551,0.9798071,0.8061033
89.80128,88.7649,-0.06979142,0.9798071,0.7996442
89.85078,96.90242,0.017135,0.9798071,0.7996442
89.90076,102.7513,0.1475326,0.9798071,0.7996442
89.95203,104.5313,0.3214015,0.9798071,0.8061033
90.00203,94.10515,0.5061322,0.9798071,0.7996442
90.05077,91.30788,0.5387256,0.9799718,0.7996442
90.10073,89.2735,0.6039284,0.9798071,0.8061033
90.15091,86.85767,0.679993,0.9798071,0.7996442
90.20198,86.09478,0.8103907,0.9798071,0.8061033
90.25179,86.60338,0.8538539,0.9798071,0.8061033
90.30048,107.0743,0.8864553,0.9798071,0.7996442
90.35023,129.071,1.016853,0.9799718,0.7996442
90.40036,98.1739,1.082056,0.9798071,0.7996442
90.45155,85.71333,1.092918,0.9798071,0.8061033
90.50153,86.85767,1.038585,0.9798071,0.8061033
90.55027,99.95398,1.038585,0.9796425,0.7996442
90.60028,102.2427,0.9733897,0.9798071,0.7996442
90.65111,103.8956,0.9299185,0.9798071,0.7996442
90.70148,92.19792,0.8103907,0.9796425,0.7996442
90.75185,88.00201,0.7234563,0.9798071,0.8061033
90.80049,85.20473,0.679993,0.9798071,0.7996442
90.85037,83.29751,0.5278638,0.9798071,0.7996442
90.90028,89.90925,0.3974662,0.9796425,0.7996442
90.95229,111.906,0.3431331,0.9796425,0.8061033
91.00227,128.8167,0.3322633,0.9798071,0.8061033
91.05113,119.7892,0.2888001,0.9798071,0.7996442
91.1011,99.19109,0.1475326,0.9798071,0.7996442
91.15102,85.20473,-0.0154584,0.9796425,0.7996442
91.20227,87.11198,-0.09153105,0.9798071,0.7996442
91.25114,98.30104,-0.2327905,0.9798071,0.8061033
91.30102,101.9884,-0.3305867,0.9796425,0.7996442
91.35062,93.46941,-0.3631881,0.9796425,0.7996442
91.40027,90.67213,-0.4501226,0.9798071,0.7996442
91.45154,87.49342,-0.5044556,0.9796425,0.7996442
91.50185,84.95044,-0.6565849,0.9796425,0.8061033
91.55125,84.569,-0.7869825,0.9796425,0.7996442
91.60127,95.37663,-0.8087141,0.9798071,0.7996442
91.65115,126.0195,-0.9173802,0.9798071,0.7996442
91.70162,127.9267,-0.9608433,0.9796425,0.8061033
91.7515,105.5485,-0.9934448,0.9798071,0.7996442
91.80028,92.7065,-1.069509,0.9796425,0.7996442
91.85027,86.34908,-1.134712,0.9799718,0.7996442
91.90027,97.28386,-1.199907,0.9796425,0.7996442
91.95235,100.2083,-1.199907,0.9796425,0.7996442
92.00119,101.9884,-1.178175,0.9798071,0.7996442
92.05115,91.43503,-1.275972,0.9798071,0.7996442
92.1006,88.7649,-1.308573,0.9798071,0.7996442
92.15019,86.09478,-1.330305,0.9695953,0.7996442
92.2015,84.18755,-1.395508,0.9697599,0.7996442
92.25134,84.18755,-1.482434,0.9697599,0.7996442
92.30109,125.1294,-1.515035,0.9697599,0.7996442
92.35123,129.9611,-1.493304,0.9697599,0.7996442
92.40052,118.1362,-1.460702,0.9697599,0.7996442
92.45163,101.8612,-1.482434,0.9697599,0.7996442
92.50173,86.34908,-1.504174,0.9697599,0.7996442
92.55024,88.00201,-1.504174,0.9697599,0.7996442
92.60101,100.4626,-1.449841,0.9697599,0.7996442
92.6507,102.2427,-1.438971,0.9699246,0.7996442
92.70171,93.08795,-1.449841,0.9695953,0.8061033
92.75167,90.41783,-1.352036,0.9697599,0.7996442
92.80051,87.62056,-1.243378,0.9699246,0.7996442
92.85126,84.82329,-1.221639,0.9697599,0.7996442
92.90085,83.93326,-1.178175,0.9697599,0.7996442
92.95169,90.29069,-1.004315,0.9697599,0.7996442
93.00151,113.3046,-0.7217796,0.9699246,0.7996442
93.05022,128.8167,-0.5587886,0.9699246,0.7996442
93.10027,108.6001,-0.2979933,0.9697599,0.7996442
93.15019,94.48659,-0.1349943,0.9697599,0.7996442
93.20219,85.33189,0.04973641,0.9697599,0.8061033
93.25219,89.2735,0.1475326,0.9697599,0.7996442
93.30046,100.3354,0.2344671,0.9697599,0.7996442
93.35119,102.2427,0.3974662,0.9697599,0.7996442
93.40097,92.19792,0.6039284,0.9699246,0.7996442
93.45223,89.0192,0.6147902,0.9697599,0.7996442
93.50171,86.47623,0.6582614,0.9697599,0.7996442
93.55043,84.18755,0.7234563,0.9697599,0.7996442
93.60035,85.33189,0.7995209,0.9697599,0.7996442
93.65034,115.339,0.8647237,0.9697599,0.7996442
93.70164,127.2909,0.9516582,0.9699246,0.7996442
93.75131,115.0847,1.103787,0.9697599,0.7996442
93.80096,95.37663,1.266786,0.9697599,0.7996442
93.8513,84.44184,1.255917,0.9699246,0.7996442
93.90082,89.2735,1.266786,0.9697599,0.7996442
93.95209,97.66531,1.321111,0.9695953,0.8061033
94.00182,101.4798,1.397184,0.9697599,0.7996442
94.05063,97.28386,1.266786,0.9697599,0.7996442
94.10069,91.81647,1.190714,0.9697599,0.7996442
94.1508,89.5278,1.125519,0.9796425,0.7996442
94.20211,87.11198,1.136389,0.9799718,0.8061033
94.25227,85.20473,0.9516582,0.9798071,0.7996442
94.30074,101.0983,0.7669275,0.9798071,0.7996442
94.35077,127.5452,0.7560577,0.9798071,0.7996442
94.40072,126.0195,0.7560577,0.9799718,0.793185
94.45209,103.7684,0.6147902,0.9798071,0.8061033
94.5022,88.00201,0.4952624,0.9798071,0.8061033
94.55069,89.2735,0.3974662,0.9798071,0.7996442
94.60046,101.3526,0.3648647,0.9798071,0.793185
94.65063,104.1499,0.2561987,0.9799718,0.7996442
94.70196,103.1327,0.1692643,0.9798071,0.7996442
94.75203,92.83366,0.04973641,0.9798071,0.7996442
94.80046,89.90925,0.02800481,0.9796425,0.7996442
94.85063,86.85767,-0.1567259,0.9796425,0.7996442
94.90063,86.09478,-0.3305867,0.9798071,0.7996442
94.95177,90.67213,-0.4066594,0.9798071,0.7996442
95.00147,118.8991,-0.4066594,0.9798071,0.7996442
95.05027,129.5796,-0.482724,0.9798071,0.7996442
95.10127,108.8544,-0.5261872,0.9798071,0.7996442
95.1512,95.75809,-0.6239834,0.9798071,0.7996442
95.20142,90.29069,-0.6565849,0.9798071,0.7996442
95.25121,97.66531,-0.7869825,0.9799718,0.7996442
95.3012,103.387,-0.8847787,0.9798071,0.7996442
95.35079,104.5313,-0.92825,0.9796425,0.7996442
95.4007,94.10515,-0.9499816,0.9799718,0.793185
95.45193,91.68932,-1.102111,0.9798071,0.7996442
95.50195,88.7649,-1.189045,0.9798071,0.7996442
95.55058,86.85767,-1.362906,0.9798071,0.7996442
95.60109,90.54498,-1.417239,0.9799718,0.7996442
95.65113,111.7788,-1.482434,0.9798071,0.7996442
95.70183,131.4868,-1.504174,0.9798071,0.7996442
95.75133,121.315,-1.525905,0.9798071,0.7996442
95.80087,103.387,-1.493304,0.9798071,0.7996442
95.85033,91.43503,-1.60197,0.9798071,0.7996442
95.90127,95.50377,-1.612832,0.9796425,0.7996442
95.95133,102.3698,-1.612832,0.9796425,0.7996442
96.00125,105.6757,-1.569368,0.9799718,0.7996442
96.05132,97.28386,-1.60197,0.9798071,0.7996442
96.10133,92.96081,-1.60197,0.9798071,0.7996442
96.15092,90.79928,-1.612832,0.9796425,0.7996442
96.20194,88.63776,-1.558499,0.9798071,0.7996442
96.2521,88.00201,-1.569368,0.9798071,0.7996442
96.30019,89.14634,-1.536767,0.9798071,0.7996442
96.3512,108.8544,-1.352036,0.9798071,0.7996442
96.40112,130.3425,-1.069509,0.9798071,0.7996442
96.45207,127.5452,-0.8956485,0.9798071,0.7996442
96.50193,99.57254,-0.7109179,0.9798071,0.8061033
96.55069,90.54498,-0.537057,0.9798071,0.7996442
96.60142,96.90242,-0.3197249,0.9798071,0.7996442
96.65098,105.1671,-0.1458561,0.9798071,0.7996442
96.70225,106.1843,0.0388666,0.9798071,0.7996442
96.7522,96.90242,0.1801341,0.9796425,0.7996442
96.80092,92.57936,0.3974662,0.9798071,0.7996442
96.85047,90.79928,0.4300676,0.9798071,0.7996442
96.90047,87.74771,0.4517992,0.9798071,0.7996442
96.95248,87.23911,0.5278638,0.9798071,0.7996442
97.00245,89.14634,0.6473916,0.9798071,0.7996442
97.05092,106.4386,0.7234563,0.9798071,0.7996442
97.10098,129.1982,0.8429921,0.9798071,0.7996442
97.15097,128.5624,0.9081869,0.9796425,0.7996442
97.20216,98.55534,1.049454,0.9798071,0.7996442
97.25169,88.38345,1.082056,0.9798071,0.7996442
97.30049,93.08795,1.071186,0.9796425,0.793185
97.35049,104.5313,1.245047,0.9798071,0.7996442
97.40022,105.4214,1.266786,0.9798071,0.7996442
97.45244,105.0399,1.201584,0.9798071,0.7996442
97.50169,93.2151,1.114649,0.9796425,0.7996442
97.55044,90.92643,1.071186,0.9798071,0.7996442
97.60049,88.5106,1.027723,0.9798071,0.7996442
97.65022,87.23911,0.8429921,0.9796425,0.793185
97.70174,92.7065,0.7560577,0.9798071,0.7996442
97.75175,120.1706,0.6908628,0.9798071,0.7996442
97.80043,127.7995,0.7125944,0.9798071,0.7996442
97.85022,115.2118,0.6039284,0.9798071,0.793185
97.90122,93.85085,0.5061322,0.9798071,0.7996442
97.95123,87.23911,0.3974662,0.9796425,0.7996442
98.0024,91.94361,0.3105317,0.9798071,0.7996442
98.05053,102.3698,0.1801341,0.9798071,0.793185
98.10043,103.0055,0.09319963,0.9799718,0.793185
98.15049,93.46941,0.0388666,0.9796425,0.7996442
98.20168,90.03638,0.1475326,0.9798071,0.7996442
98.25123,89.14634,0.1910039,0.9798071,0.793185
98.30074,87.49342,0.0388666,0.9798071,0.7996442
98.35074,84.44184,-0.1349943,0.9798071,0.7996442
98.40086,90.29069,-0.1784575,0.9798071,0.793185
98.45168,118.8991,-0.3631881,0.9699246,0.7996442
98.50168,127.6724,-0.4501226,0.9697599,0.7996442
98.55148,106.4386,-0.5261872,0.9697599,0.7996442
98.60148,90.29069,-0.591382,0.9697599,0.7996442
98.65073,88.00201,-0.7435193,0.9697599,0.7996442
98.70219,99.06393,-0.8304457,0.9697599,0.7996442
98.752,101.8612,-0.8956485,0.9697599,0.7996442
98.80053,103.0055,-0.92825,0.9699246,0.793185
98.85033,92.19792,-1.047778,0.9697599,0.793185
98.9012,89.40065,-1.156444,0.9697599,0.793185
98.95232,87.11198,-1.243378,0.9697599,0.7996442
99.0022,84.44184,-1.417239,0.9699246,0.7996442
99.05044,87.62056,-1.493304,0.9695953,0.793185
99.10123,115.339,-1.504174,0.9699246,0.7996442
99.15064,129.5796,-1.525905,0.9697599,0.793185
99.20211,120.5521,-1.504174,0.9697599,0.7996442
99.25192,109.8716,-1.536767,0.9699246,0.7996442
99.30031,89.14634,-1.569368,0.9695953,0.793185
99.35133,93.08795,-1.569368,0.9697599,0.7996442
99.40111,99.95398,-1.515035,0.9697599,0.7996442
99.4519,103.7684,-1.515035,0.9697599,0.7996442
99.50185,98.42819,-1.438971,0.9697599,0.793185
99.55061,92.57936,-1.221639,0.9699246,0.7996442
99.6013,90.29069,-0.92825,0.9699246,0.7996442
99.6508,87.11198,-0.8739169,0.9697599,0.7996442
99.70232,85.71333,-0.8195839,0.9697599,0.7996442
99.75247,87.62056,-0.7543811,0.9699246,0.7996442
99.80106,113.3046,-0.5805202,0.9699246,0.793185
99.85077,129.1982,-0.4066594,0.9699246,0.793185
99.90073,108.0915,-0.2436603,0.9697599,0.7996442
99.95208,98.42819,-0.09153105,0.9697599,0.7996442
100.0021,90.03638,0.09319963,0.9697599,0.793185
100.0505,95.37663,0.2018657,0.9697599,0.793185
100.1005,100.0811,0.3322633,0.9697599,0.7996442
100.1503,104.5313,0.4517992,0.9699246,0.793185
100.2015,96.77527,0.6147902,0.9699246,0.7996442
100.2524,95.24948,0.62566,0.9697599,0.7996442
100.3009,89.65494,0.6582614,0.9697599,0.793185
100.3511,87.11198,0.7125944,0.9699246,0.7996442
100.4011,87.36626,0.8538539,0.9699246,0.793185
100.4519,109.1087,0.8429921,0.9697599,0.7996442
100.502,128.8167,0.9625199,0.9699246,0.7996442
100.5507,127.0366,0.9951214,0.9695953,0.793185
100.601,104.5313,1.082056,0.9697599,0.793185
100.6505,91.18073,1.038585,0.9697599,0.793185
100.7014,89.14634,1.005991,0.9697599,0.7996442
100.7515,101.8612,0.9951214,0.9699246,0.7996442
100.8014,104.4042,1.038585,0.9697599,0.7996442
100.851,104.1499,0.9299185,0.9697599,0.793185
100.9006,93.46941,0.7886591,0.9697599,0.793185
100.9513,90.67213,0.7451879,0.9697599,0.793185
101.0013,89.14634,0.7234563,0.9697599,0.7996442
101.0504,86.85767,0.5387256,0.9697599,0.793185
101.1008,93.85085,0.462661,0.9697599,0.7996442
101.1507,125.638,0.3539949,0.9699246,0.7996442
101.2018,130.2153,0.3431331,0.9697599,0.793185
101.2519,127.9267,0.2127355,0.9699246,0.7996442
101.3005,96.01237,0.08233783,0.9697599,0.793185
101.3506,90.16354,0.006273206,0.9697599,0.793185
101.4007,97.66531,-0.08066124,0.9699246,0.793185
101.4522,103.8956,-0.2327905,0.9699246,0.7996442
101.5017,104.7856,-0.3197249,0.9697599,0.793185
101.551,94.61374,-0.3631881,0.9697599,0.7996442
101.6011,92.7065,-0.3740579,0.9697599,0.793185
101.6511,89.65494,-0.4501226,0.9697599,0.793185
101.7018,88.00201,-0.5696504,0.9699246,0.7996442
101.7517,87.11198,-0.7326494,0.9699246,0.793185
101.8006,92.57936,-0.7326494,0.9699246,0.793185
101.8506,131.2325,-0.8087141,0.9697599,0.793185
101.9012,125.2566,-0.8521773,0.9697599,0.7996442
101.9513,104.5313,-0.8847787,0.9697599,0.7996442
102.0021,93.08795,-0.9391118,0.9697599,0.793185
102.051,92.57936,-1.004315,0.9697599,0.7996442
102.1009,103.7684,-1.015176,0.9697599,0.793185
102.1512,104.9128,-1.102111,0.9697599,0.793185
102.2024,105.5485,-1.080379,0.9697599,0.7996442
102.2518,98.30104,-1.112981,0.9699246,0.7996442
102.3008,92.57936,-1.167306,0.9697599,0.7996442
102.3505,91.18073,-1.156444,0.9697599,0.7996442
102.4006,88.38345,-1.232508,0.9699246,0.793185
102.452,90.16354,-1.362906,0.9697599,0.7996442
102.5016,94.86804,-1.406369,0.9697599,0.793185
102.551,132.2497,-1.406369,0.9697599,0.7996442
102.601,118.6448,-1.352036,0.9699246,0.7996442
102.651,103.7684,-1.384638,0.9699246,0.793185
102.7024,93.08795,-1.395508,0.9699246,0.7996442
102.7522,94.10515,-1.438971,0.9697599,0.7996442
102.8007,104.1499,-1.362906,0.9699246,0.793185
102.8508,107.0743,-1.308573,0.9697599,0.793185
102.9007,101.4798,-1.275972,0.9699246,0.793185
102.952,95.37663,-1.167306,0.9697599,0.7996442
103.0021,92.19792,-1.058648,0.9699246,0.7996442
103.0504,90.79928,-0.92825,0.9697599,0.793185
103.1004,88.12916,-0.8521773,0.9699246,0.793185
103.1504,87.23911,-0.7761127,0.9697599,0.793185
103.2014,96.64812,-0.5805202,0.9699246,0.7996442
103.2524,122.9679,-0.4175211,0.9697599,0.7996442
103.3011,124.6208,-0.2219287,0.9699246,0.793185
103.351,106.4386,-0.04805982,0.9695953,0.793185
103.4007,94.2323,0.1584025,0.9699246,0.793185
103.4521,92.19792,0.2344671,0.9699246,0.7996442
103.502,103.0055,0.3431331,0.9697599,0.793185
103.5514,105.6757,0.462661,0.9697599,0.7996442
103.601,106.6929,0.6582614,0.9697599,0.793185
103.651,95.88522,0.7125944,0.9697599,0.793185
103.7022,92.57936,0.7343261,0.9697599,0.7996442
103.7521,90.67213,0.7343261,0.9697599,0.7996442
103.8008,89.5278,0.9407883,0.9699246,0.793185
103.8507,88.25631,0.9081869,0.9697599,0.793185
103.9006,88.38345,0.8973252,0.9699246,0.793185
103.952,104.1499,0.9733897,0.9697599,0.7996442
104.002,130.4697,1.114649,0.9697599,0.7996442
104.0504,124.748,1.071186,0.9697599,0.793185
104.1014,97.02956,1.060316,0.9697599,0.7996442
104.1512,88.00201,0.9733897,0.9697599,0.7996442
104.2024,95.37663,0.9625199,0.9697599,0.7996442
104.2524,98.42819,0.9081869,0.9697599,0.7996442
104.3009,105.2942,0.7995209,0.9699246,0.793185
104.351,96.64812,0.7234563,0.9697599,0.793185
104.4009,92.96081,0.7451879,0.9697599,0.793185
104.4514,91.18073,0.6039284,0.9798071,0.793185
104.5025,88.00201,0.5061322,0.9798071,0.793185
104.5508,86.47623,0.3757345,0.9798071,0.793185
104.6007,87.11198,0.3431331,0.9798071,0.793185
104.6514,96.52097,0.1801341,0.9798071,0.7996442
104.7017,130.3425,0.1149393,0.9798071,0.793185
104.7524,129.4525,0.06060623,0.9798071,0.7996442
104.8012,99.44539,0.04973641,0.9798071,0.793185
104.8512,87.49342,-0.1458561,0.9799718,0.793185
104.9011,90.67213,-0.2653919,0.9796425,0.793185
104.9517,102.6241,-0.3631881,0.9798071,0.7996442
105.0017,103.7684,-0.3740579,0.9796425,0.793185
105.0504,104.1499,-0.4501226,0.9798071,0.793185
105.1012,92.19792,-0.4935858,0.9798071,0.793185
105.1508,90.29069,-0.6239834,0.9798071,0.793185
105.2016,87.74771,-0.6457151,0.9799718,0.793185
105.2524,86.09478,-0.7869825,0.9798071,0.7996442
105.3011,86.73053,-0.9717132,0.9796425,0.8061033
105.3511,99.82683,-1.004315,0.9796425,0.8125626
105.4012,131.4868,-0.9825749,0.9798071,0.8125626
105.4523,122.9679,-1.036908,0.9798071,0.8190217
105.5024,102.7513,-1.080379,0.9798071,0.8125626
105.551,88.38345,-1.112981,0.9799718,0.8125626
105.6009,89.90925,-1.123842,0.9798071,0.8061033
105.6509,101.4798,-1.178175,0.9798071,0.7996442
105.7025,103.387,-1.210777,0.9799718,0.7867259
105.7522,96.52097,-1.221639,0.9798071,0.7350526
105.8011,92.57936,-1.26511,0.9798071,0.7544301
105.8508,89.14634,-1.319443,0.9796425,0.7867259
105.9007,86.34908,-1.406369,0.9798071,0.7867259
105.9516,85.71333,-1.438971,0.9798071,0.7867259
106.0017,86.34908,-1.428101,0.9798071,0.7867259
106.0505,113.3046,-1.384638,0.9798071,0.793185
106.1004,129.4525,-1.167306,0.9796425,0.793185
106.1514,111.7788,-1.058648,0.9798071,0.7996442
106.2024,97.28386,-0.8956485,0.9798071,0.7996442
106.2521,89.14634,-0.7543811,0.9798071,0.7996442
106.3009,91.05358,-0.5805202,0.9798071,0.8061033
106.3509,102.2427,-0.3523263,0.9798071,0.8254809
106.4005,103.7684,-0.09153105,0.9798071,0.8190217
106.4514,95.37663,-0.004596607,0.9798071,0.8125626
106.5014,91.05358,0.09319963,0.9798071,0.8125626
106.5509,87.87486,0.2127355,0.9798071,0.8061033
106.6007,85.58618,0.3974662,0.9798071,0.793185
106.6508,86.85767,0.4300676,0.9798071,0.7738075
106.7022,112.2874,0.5061322,0.9796425,0.7350526
106.7516,130.0882,0.5930586,0.9796425,0.7738075
106.8005,123.095,0.8321223,0.9699246,0.7867259
106.8504,103.0055,0.8321223,0.9699246,0.7867259
106.9004,89.65494,0.7995209,0.9697599,0.7802668
106.9515,86.85767,0.9299185,0.9697599,0.793185
107.0015,100.5897,1.060316,0.9697599,0.793185
107.0511,101.8612,1.103787,0.9697599,0.793185
107.1009,102.7513,1.168982,0.9697599,0.7996442
107.1504,92.19792,1.147251,0.9697599,0.7996442
107.2018,89.65494,1.125519,0.9697599,0.8061033
107.2525,88.12916,1.005991,0.9699246,0.8190217
107.3011,85.71333,0.8973252,0.9699246,0.8190217
107.3509,103.0055,0.8755855,0.9697599,0.8190217
107.4015,127.6724,0.8647237,0.9699246,0.8125626
107.4516,126.2737,0.7669275,0.9697599,0.8061033
107.5015,99.57254,0.6691232,0.9697599,0.7996442
107.5513,85.71333,0.5930586,0.9699246,0.7867259
107.6012,88.63776,0.5930586,0.9697599,0.7479709
107.6512,101.0983,0.4843926,0.9697599,0.7415117
107.7014,102.8784,0.3865964,0.9697599,0.7867259
107.7521,102.8784,0.2888001,0.9697599,0.793185
107.8007,91.30788,0.2888001,0.9699246,0.7802668
107.8505,88.89205,0.125801,0.9695953,0.7867259
107.9015,85.84048,-0.05892963,0.9697599,0.7867259
107.9514,86.22193,-0.1784575,0.9697599,0.793185
108.0024,97.9196,-0.2110589,0.9699246,0.793185
108.0511,131.1054,-0.2871235,0.9697599,0.7996442
108.1009,122.4593,-0.3088551,0.9697599,0.8061033
108.1509,101.4798,-0.4175211,0.9697599,0.7996442
108.2017,88.38345,-0.4718542,0.9697599,0.8125626
108.2519,88.7649,-0.537057,0.9697599,0.8190217
108.3006,101.9884,-0.5805202,0.9697599,0.8190217
108.3514,103.0055,-0.6022518,0.9697599,0.8125626
108.4013,96.39381,-0.5696504,0.9699246,0.8061033
108.4522,91.81647,-0.7543811,0.9697599,0.7996442
108.5022,88.25631,-0.8195839,0.9697599,0.7867259
108.5509,86.73053,-0.9391118,0.9699246,0.7479709
108.6004,86.09478,-1.047778,0.9699246,0.7415117
108.6504,114.7032,-1.167306,0.9697599,0.7802668
108.7019,132.7583,-1.178175,0.9697599,0.7802668
108.7519,125.1294,-1.134712,0.9697599,0.7867259
108.8006,103.8956,-1.091241,0.9697599,0.7867259
108.8507,90.03638,-1.189045,0.9697599,0.7867259
108.9004,90.79928,-1.232508,0.9697599,0.7867259
108.9516,99.57254,-1.232508,0.9695953,0.793185
109.0017,102.6241,-1.210777,0.9699246,0.8061033
109.0514,99.95398,-1.232508,0.9697599,0.7996442
109.1014,93.72369,-1.319443,0.9697599,0.8061033
109.1506,90.79928,-1.26511,0.9697599,0.8125626
109.2027,87.62056,-1.232508,0.9697599,0.8190217
109.2526,86.73053,-1.178175,0.9697599,0.8190217
109.3014,86.47623,-1.091241,0.9699246,0.8125626
109.3511,130.4697,-0.9065104,0.9697599,0.7996442
109.4011,128.8167,-0.6239834,0.9699246,0.793185
109.4524,109.1087,-0.4609844,0.9697599,0.7738075
109.5024,94.99519,-0.3305867,0.9699246,0.7350526
109.5512,89.40065,-0.1675957,0.9697599,0.7544301
109.6012,100.4626,0.06060623,0.9699246,0.7802668
109.6513,104.1499,0.1692643,0.9697599,0.7867259
109.7025,104.7856,0.3105317,0.9697599,0.7867259
109.7514,95.37663,0.4083279,0.9697599,0.7867259
109.801,91.56216,0.5604652,0.9699246,0.793185
109.851,88.12916,0.5495954,0.9699246,0.793185
109.901,86.34908,0.571327,0.9697599,0.7996442
109.9522,89.90925,0.7017246,0.9699246,0.8190217
110.0019,118.8991,0.8538539,0.9697599,0.8190217
110.0505,130.3425,0.8647237,0.9699246,0.8190217
110.1016,107.5829,0.9842516,0.9699246,0.8125626
110.1514,92.19792,0.9516582,0.9697599,0.8061033
110.2022,86.47623,1.016853,0.9697599,0.793185
110.2519,94.86804,1.016853,0.9697599,0.7802668
110.3007,101.0983,0.9625199,0.9699246,0.7350526
110.3506,103.7684,0.9407883,0.9697599,0.7479709
110.4017,93.85085,0.9190567,0.9697599,0.7867259
110.4527,91.05358,0.7777893,0.9699246,0.7867259
110.5015,87.87486,0.6473916,0.9697599,0.7867259
110.5515,85.58618,0.5278638,0.9697599,0.793185
110.6015,98.80965,0.516994,0.9697599,0.793185
110.6511,125.638,0.4409294,0.9697599,0.7996442
110.702,130.4697,0.3539949,0.9699246,0.7996442
110.7517,109.9987,0.2779303,0.9697599,0.8190217
110.8005,94.99519,0.2561987,0.9699246,0.8190217
110.8516,86.47623,0.09319963,0.9697599,0.8125626
110.9016,95.75809,-0.004596607,0.9697599,0.8125626
110.9518,102.6241,-0.1458561,0.9697599,0.7996442
111.0025,103.387,-0.2219287,0.9697599,0.793185
111.0512,93.85085,-0.3088551,0.9699246,0.7673484
111.1012,91.18073,-0.3740579,0.9699246,0.7285934
111.1509,88.00201,-0.482724,0.9798071,0.7673484
111.2015,85.20473,-0.6022518,0.9798071,0.7802668
111.2525,85.71333,-0.7217796,0.9798071,0.7867259
111.3007,116.229,-0.7652509,0.9796425,0.7802668
111.3512,131.8683,-0.7761127,0.9796425,0.793185
111.401,115.0847,-0.7652509,0.9798071,0.793185
111.4525,97.79247,-0.8630471,0.9798071,0.7996442
111.502,86.85767,-0.9717132,0.9798071,0.8125626
111.5507,91.18073,-1.004315,0.9798071,0.8125626
111.6006,101.7341,-0.9825749,0.9799718,0.8125626
111.6514,103.0055,-1.026046,0.9799718,0.8125626
111.7016,93.34225,-1.047778,0.9798071,0.7996442
111.7518,90.03638,-1.134712,0.9796425,0.793185
111.8012,86.47623,-1.178175,0.9796425,0.7802668
111.8515,84.18755,-1.341174,0.9798071,0.7350526
111.9014,85.58618,-1.428101,0.9798071,0.7544301
111.9525,107.0743,-1.482434,0.9798071,0.7867259
112.002,131.9954,-1.438971,0.9796425,0.7867259
112.0509,129.9611,-1.417239,0.9798071,0.7867259
112.1009,98.80965,-1.395508,0.9798071,0.7867259
112.1508,87.23911,-1.308573,0.9798071,0.7802668
112.2018,89.90925,-1.156444,0.9798071,0.793185
112.2527,97.66531,-1.026046,0.9798071,0.8061033
112.3012,101.6069,-0.8630471,0.9796425,0.8190217
112.3511,102.6241,-0.6674547,0.9798071,0.8125626
112.4012,90.67213,-0.4718542,0.9798071,0.8125626
112.4517,88.00201,-0.3414565,0.9796425,0.8061033
112.5016,84.44184,-0.2436603,0.9798071,0.8061033
112.5513,83.04321,-0.1458561,0.9798071,0.793185
112.6014,89.90925,0.06060623,0.9798071,0.7802668
112.6512,125.638,0.2018657,0.9798071,0.7350526
112.7021,129.4525,0.3648647,0.9798071,0.7544301
112.7518,108.4729,0.462661,0.9798071,0.7867259
112.8006,90.03638,0.62566,0.9796425,0.7802668
112.8514,85.33189,0.6365299,0.9798071,0.7867259
112.9007,94.99519,0.679993,0.9796425,0.7802668
112.9519,100.2083,0.7669275,0.9798071,0.7867259
113.0019,100.7169,0.9081869,0.9798071,0.793185
113.0514,91.05358,0.9407883,0.9796425,0.793185
113.1014,87.62056,0.9951214,0.9798071,0.7996442
113.1506,84.82329,0.9733897,0.9796425,0.8125626
113.2019,83.29751,0.9842516,0.9798071,0.8190217
113.2515,82.91606,0.9733897,0.9798071,0.8125626
113.3014,125.638,0.9299185,0.9799718,0.8061033
113.3513,127.2909,0.8864553,0.9796425,0.7996442
113.4014,111.5245,0.9081869,0.9798071,0.7867259
113.4527,91.94361,0.7669275,0.9798071,0.7673484
113.5026,82.40748,0.6691232,0.9798071,0.7415117
113.5513,93.34225,0.6147902,0.9796425,0.7673484
113.6014,99.19109,0.6147902,0.9798071,0.7867259
113.6511,100.5897,0.5278638,0.9798071,0.7867259
113.7027,90.67213,0.4191978,0.9798071,0.7867259
113.7526,87.36626,0.3105317,0.9798071,0.7867259
113.8014,84.569,0.2344671,0.9796425,0.7867259
113.851,81.39028,0.07146802,0.9798071,0.7867259
113.9009,83.67896,-0.04805982,0.9798071,0.7867259
113.9521,119.2806,-0.1241244,0.9796425,0.793185
114.0022,128.181,-0.1675957,0.9798071,0.7996442
114.051,107.5829,-0.2436603,0.9798071,0.793185
114.1006,92.32506,-0.3305867,0.9798071,0.8125626
114.1516,83.29751,-0.4392528,0.9798071,0.8125626
114.2015,91.94361,-0.428391,0.9798071,0.8125626
114.2515,99.06393,-0.4718542,0.9798071,0.8061033
114.3011,99.95398,-0.537057,0.9798071,0.7996442
114.3511,92.96081,-0.6131216,0.9798071,0.793185
114.4008,88.00201,-0.6239834,0.9798071,0.7867259
114.4521,84.44184,-0.7326494,0.9798071,0.7608892
114.5026,82.40748,-0.8847787,0.9796425,0.7415117
114.5512,89.65494,-0.9608433,0.9798071,0.7608892
114.6011,113.0503,-0.9608433,0.9798071,0.7802668
114.6508,127.6724,-0.9608433,0.9796425,0.7802668
114.7024,104.9128,-0.9499816,0.9799718,0.7867259
114.7524,96.52097,-1.004315,0.9798071,0.7867259
114.8011,85.58618,-0.9934448,0.9798071,0.7867259
114.8512,90.79928,-1.036908,0.9798071,0.7867259
114.9012,99.57254,-1.047778,0.9798071,0.793185
114.9519,101.0983,-1.069509,0.9798071,0.7867259
115.0019,91.05358,-1.102111,0.9796425,0.7867259
115.0505,88.38345,-1.123842,0.9798071,0.7867259
115.1016,84.82329,-1.178175,0.9798071,0.7867259
115.1511,83.04321,-1.319443,0.9796425,0.7867259
115.2024,89.90925,-1.352036,0.9799718,0.793185
115.252,98.80965,-1.373776,0.9796425,0.7867259
115.3008,123.9851,-1.341174,0.9798071,0.7867259
115.3506,113.4317,-1.308573,0.9798071,0.7867259
115.4016,94.10515,-1.221639,0.9798071,0.793185
115.4518,85.71333,-1.145574,0.9798071,0.793185
115.5025,93.978,-1.069509,0.9798071,0.7867259
115.5508,99.95398,-0.9391118,0.9796425,0.7867259
115.6008,101.0983,-0.7217796,0.9798071,0.7867259
115.6506,92.32506,-0.591382,0.9798071,0.7867259
115.7015,88.7649,-0.482724,0.9798071,0.7867259
115.7524,85.45904,-0.3740579,0.9796425,0.7867259
115.8014,82.91606,-0.2327905,0.9798071,0.7867259
115.851,84.0604,-0.1023928,0.9798071,0.7867259
115.9005,104.9128,0.0388666,0.9796425,0.7867259
115.9515,129.1982,0.2235973,0.9799718,0.7867259
116.0025,111.2702,0.4083279,0.9798071,0.7867259
116.0512,99.06393,0.5061322,0.9798071,0.7867259
116.101,86.09478,0.5930586,0.9798071,0.7867259
116.151,87.23911,0.62566,0.9798071,0.7867259
116.2023,100.7169,0.7560577,0.9796425,0.7867259
116.2521,101.4798,0.8429921,0.9796425,0.7867259
116.3015,101.6069,0.9299185,0.9798071,0.7867259
116.3516,90.29069,0.9081869,0.9796425,0.7867259
116.4006,86.73053,1.082056,0.9798071,0.7867259
116.4516,84.0604,1.027723,0.9798071,0.7867259
116.5016,84.569,1.049454,0.9798071,0.793185
116.5515,108.3458,1.082056,0.9796425,0.7867259
116.6015,127.7995,1.147251,0.9798071,0.7867259
116.6511,113.8132,1.082056,0.9798071,0.7867259
116.7014,94.61374,0.9951214,0.9798071,0.7867259
116.7512,83.80611,0.9407883,0.9798071,0.7867259
116.8011,88.12916,0.9625199,0.9799718,0.7867259
116.8525,99.06393,0.8321223,0.9799718,0.7867259
116.9011,101.3526,0.7343261,0.9798071,0.7867259
116.9514,92.19792,0.6473916,0.9796425,0.7867259
117.0015,88.00201,0.6365299,0.9796425,0.7867259
117.051,85.84048,0.5061322,0.9798071,0.7802668
117.1017,82.91606,0.3757345,0.9798071,0.7867259
117.1514,85.58618,0.2235973,0.9796425,0.7867259
117.2014,120.6792,0.2127355,0.9798071,0.7867259
117.2513,127.4181,0.1584025,0.9798071,0.7867259
117.3016,109.7444,0.125801,0.9798071,0.7867259
117.3524,92.32506,0.07146802,0.9796425,0.7867259
117.4012,84.69615,0.09319963,0.9798071,0.7867259
117.4512,89.65494,0.017135,0.9796425,0.7867259
117.5016,97.28386,-0.04805982,0.9798071,0.7867259
117.5516,100.3354,-0.1567259,0.9798071,0.7867259
117.6026,92.45221,-0.2001891,0.9798071,0.793185
117.6512,88.7649,-0.2871235,0.9798071,0.7867259
117.7014,85.58618,-0.3631881,0.9798071,0.7867259
117.7514,83.67896,-0.4609844,0.9796425,0.7867259
117.8014,82.28033,-0.5153174,0.9798071,0.7867259
117.8516,104.5313,-0.5479188,0.9798071,0.7867259
117.9015,128.3081,-0.6131216,0.9798071,0.7867259
117.9514,126.528,-0.6457151,0.9796425,0.7867259
118.0013,97.15671,-0.6565849,0.9798071,0.7867259
118.0514,85.58618,-0.7543811,0.9796425,0.7867259
118.1023,90.67213,-0.7978523,0.9798071,0.7867259
118.1512,98.9368,-0.8739169,0.9798071,0.7867259
118.2013,101.0983,-0.8630471,0.9798071,0.7867259
118.2511,100.7169,-0.9173802,0.9796425,0.7867259
118.3008,90.67213,-0.9934448,0.9798071,0.7802668
118.3519,87.23911,-1.026046,0.9798071,0.7867259
118.4005,83.93326,-1.080379,0.9798071,0.7867259
118.4506,82.91606,-1.221639,0.9796425,0.7867259
118.5006,91.56216,-1.297703,0.9798071,0.7802668
118.5508,124.8751,-1.275972,0.9796425,0.7867259
118.602,127.0366,-1.210777,0.9798071,0.793185
118.6505,107.4557,-1.189045,0.9798071,0.7867259
118.7017,92.83366,-1.123842,0.9798071,0.7867259
118.7509,85.96764,-1.015176,0.9798071,0.7867259
118.8009,92.96081,-0.8087141,0.9796425,0.7802668
118.8519,100.7169,-0.6348532,0.9798071,0.7867259
118.9017,101.0983,-0.4718542,0.9796425,0.7867259
118.9507,91.18073,-0.3197249,0.9796425,0.7802668
119.0007,87.87486,-0.09153105,0.9798071,0.7802668
119.0517,84.3147,-0.02632821,0.9798071,0.7867259
119.1027,81.77173,0.1040694,0.9799718,0.793185
119.1514,89.5278,0.1910039,0.9798071,0.7867259
119.2013,113.5589,0.4083279,0.9798071,0.7867259
119.2513,128.181,0.4952624,0.9798071,0.7867259
119.3009,117.5005,0.5821968,0.9796425,0.7867259
119.3527,96.26666,0.6365299,0.9796425,0.7867259
119.4015,85.07759,0.7886591,0.9798071,0.7867259
119.4514,87.74771,0.8755855,0.9798071,0.7867259
119.5012,99.95398,0.8864553,0.9796425,0.7867259
119.5512,101.0983,0.9951214,0.9798071,0.7867259
119.6023,98.42819,1.114649,0.9798071,0.7867259
119.6511,88.63776,1.168982,0.9799718,0.7867259
119.7013,86.34908,1.190714,0.9798071,0.7867259
119.751,84.44184,1.190714,0.9798071,0.7867259
119.8009,83.42466,1.277648,0.9697599,0.7802668
119.8521,94.86804,1.212453,0.9697599,0.7867259
119.9009,126.4009,1.147251,0.9697599,0.7802668
119.9516,123.095,1.103787,0.9695953,0.7802668
120.0016,99.44539,1.060316,0.9697599,0.7867259
120.0516,83.93326,0.9407883,0.9697599,0.7867259
120.1017,85.71333,0.8864553,0.9697599,0.7867259
120.1515,98.30104,0.7343261,0.9699246,0.7867259
120.2009,100.3354,0.7451879,0.9697599,0.7802668
120.2506,100.0811,0.6365299,0.9699246,0.7802668
120.3006,89.14634,0.516994,0.9697599,0.7802668
120.3516,86.47623,0.4083279,0.9697599,0.7802668
120.4013,83.55181,0.3105317,0.9697599,0.7867259
120.4513,82.28033,0.1366709,0.9697599,0.7802668
120.5013,102.6241,0.04973641,0.9697599,0.7867259
120.5508,125.2566,-0.02632821,0.9699246,0.7802668
120.6021,120.5521,-0.05892963,0.9697599,0.7867259
120.6517,102.1155,-0.2001891,0.9697599,0.7867259
120.7006,89.90925,-0.3088551,0.9699246,0.7802668
120.7516,83.67896,-0.4175211,0.9697599,0.7867259
120.8011,95.75809,-0.428391,0.9697599,0.7867259
120.8521,98.55534,-0.5479188,0.9697599,0.7867259
120.9006,99.57254,-0.6348532,0.9697599,0.7802668
120.9516,89.0192,-0.7217796,0.9697599,0.7802668
121.0011,86.47623,-0.7109179,0.9700893,0.7867259
121.0509,83.29751,-0.9173802,0.9699246,0.7802668
121.1021,82.53461,-1.047778,0.9697599,0.7867259
121.1508,90.67213,-1.145574,0.9699246,0.7802668
121.2009,122.4593,-1.112981,0.9697599,0.7802668
121.2508,126.4009,-1.134712,0.9697599,0.7867259
121.3013,116.9919,-1.178175,0.9699246,0.7867259
121.3523,88.12916,-1.243378,0.9697599,0.7867259
121.4011,86.22193,-1.26511,0.9697599,0.7867259
121.4511,95.75809,-1.297703,0.9697599,0.7802668
121.5011,100.7169,-1.308573,0.9697599,0.7802668
121.551,101.4798,-1.286842,0.9697599,0.7802668
121.6024,90.03638,-1.319443,0.9697599,0.7867259
121.6513,87.11198,-1.232508,0.9697599,0.7802668
121.7017,84.95044,-1.221639,0.9697599,0.7867259
121.7515,83.93326,-1.178175,0.9697599,0.7867259
121.8008,88.00201,-1.026046,0.9697599,0.7802668
121.8518,123.2222,-0.8739169,0.9697599,0.7802668
121.9016,125.5108,-0.6783165,0.9697599,0.7867259
121.9514,108.3458,-0.4935858,0.9699246,0.7802668
122.0008,94.99519,-0.2979933,0.9697599,0.7802668
