t_sec,abp_mmHg,resp_arbunit,spo2_unitless,scon_muS
0,95.12233,0.3198286,0.9699246,3.396228
0.05135774,94.48659,0.32243,0.9699246,3.396228
0.1002369,92.32506,0.32243,0.9697599,3.396228
0.1498478,87.23911,0.32243,0.9697599,3.396228
0.2013736,84.82329,0.3237312,0.9699246,3.396228
0.2499799,82.15317,0.3237312,0.9699246,3.396228
0.3003497,80.24594,0.3237312,0.9798071,3.396228
0.3493529,78.97446,0.32243,0.9796425,3.396228
0.3998419,78.08442,0.32243,0.9798071,3.389769
0.4507048,76.43149,0.3159265,0.9798071,3.389769
0.4997355,73.88851,0.3172272,0.9799718,3.389769
0.5505888,77.44867,0.328934,0.9798071,3.396228
0.5999863,98.9368,0.3250319,0.9798071,3.396228
0.6499851,111.6517,0.3250319,0.9798071,3.389769
0.7013431,106.6929,0.3250319,0.9798071,3.389769
0.7497604,104.0227,0.3250319,0.9799718,3.389769
0.800384,104.277,0.3198286,0.9799718,3.396228
0.8496284,97.41101,0.3185279,0.9799718,3.389769
0.8997181,94.48659,0.3133246,0.9799718,3.389769
0.950988,94.10515,0.3068206,0.9798071,3.389769
1.000018,90.67213,0.3055199,0.9799718,3.389769
1.051358,86.22193,0.3042192,0.9798071,3.389769
1.10024,84.0604,0.3081213,0.9798071,3.389769
1.149847,81.64457,0.3159265,0.9798071,3.38331
1.201347,79.3559,0.3406413,0.9798071,3.389769
1.24937,77.83012,0.3978757,0.9798071,3.389769
1.300344,75.66859,0.4772241,0.9798071,3.389769
1.34985,75.41429,0.6086035,0.9798071,3.38331
1.399868,74.90571,0.6528299,0.9798071,3.389769
1.45136,72.36273,0.7022601,0.9799718,3.389769
1.499616,77.70296,0.7607952,0.9798071,3.38331
1.551382,111.7788,0.8037214,0.9798071,3.38331
1.599697,107.2015,0.8258348,0.9798071,3.389769
1.650467,104.5313,0.8752645,0.9798071,3.38331
1.699824,103.387,0.8869718,0.9798071,3.38331
1.751342,101.0983,0.8843704,0.9798071,3.38331
1.800202,93.34225,0.8856711,0.9799718,3.38331
1.849721,92.96081,0.8726631,0.9798071,3.38331
1.899356,91.56216,0.8570536,0.9798071,3.38331
1.949589,87.62056,0.8401435,0.9798071,3.38331
2.001503,85.20473,0.8141274,0.9799718,3.376851
2.049978,83.29751,0.7829086,0.9799718,3.38331
2.099695,80.62739,0.7646978,0.9798071,3.376851
2.149343,79.3559,0.7490883,0.9798071,3.376851
2.200508,78.21156,0.7217716,0.9798071,3.38331
2.251002,75.41429,0.7100648,0.9798071,3.376851
2.299589,78.72016,0.6866506,0.9798071,3.376851
2.350343,104.9128,0.6476271,0.9798071,3.376851
2.400488,109.9987,0.6294158,0.9798071,3.376851
2.449377,103.387,0.6164082,0.9798071,3.376851
2.501336,101.7341,0.592994,0.9799718,3.376851
2.550016,100.9712,0.5487672,0.9798071,3.370391
2.599817,93.34225,0.4863295,0.9798071,3.376851
2.650474,91.81647,0.4668174,0.9798071,3.376851
2.700475,92.32506,0.451208,0.9798071,3.376851
2.751588,88.38345,0.4395012,0.9798071,3.376851
2.799599,84.44184,0.4277939,0.9798071,3.370391
2.850343,82.15317,0.4551106,0.9796425,3.370391
2.900603,80.88168,0.4941342,0.9798071,3.376851
2.950593,78.59301,0.4811262,0.9796425,3.376851
3.001598,77.70296,0.3276333,0.9798071,3.376851
3.049945,76.30434,0.4772241,0.9798071,3.376851
3.099593,74.65141,0.3627548,0.9798071,3.370391
3.150565,73.37991,-0.03528614,0.9798071,3.376851
3.199689,78.59301,-0.677875,0.9798071,3.370391
3.251189,108.7272,-1.221604,0.9798071,3.376851
3.299596,105.5485,-1.510379,0.9798071,3.376851
3.350115,103.7684,-1.585824,0.9798071,3.376851
3.400091,103.0055,-2.034596,0.9798071,3.376851
3.449814,100.7169,-3.659279,0.9798071,3.370391
3.500441,93.72369,-5.914844,0.9799718,3.370391
3.550329,93.34225,-6.208822,0.9798071,3.370391
3.600472,92.83366,-6.128173,0.9798071,3.370391
3.650225,87.62056,-6.108661,0.9798071,3.363932
3.700325,85.71333,-6.082645,0.9798071,3.363932
3.751466,82.91606,-6.029313,0.9798071,3.363932
3.799722,80.88168,-5.935656,0.9798071,3.363932
3.849586,78.21156,-4.800069,0.9796425,3.357473
3.900195,77.57583,-3.537005,0.9798071,3.363932
3.949941,75.54144,-2.398816,0.9798071,3.363932
4.001204,72.74417,-2.064514,0.9798071,3.363932
4.050185,73.12562,-1.680782,0.9798071,3.363932
4.100339,87.87486,-1.111037,0.9799718,3.363932
4.150334,111.906,-0.7429142,0.9796425,3.363932
4.200222,106.4386,-0.5816166,0.9799718,3.363932
4.2512,104.1499,-0.2304045,0.9798071,3.363932
4.299477,104.9128,0.07658127,0.9798071,3.363932
4.34973,99.69969,0.3068206,0.9798071,3.357473
4.400074,93.34225,0.6099042,0.9798071,3.357473
4.449447,93.85085,0.8375416,0.9798071,3.357473
4.501081,91.81647,1.002742,0.9798071,3.357473
4.550601,88.25631,1.121113,0.9798071,3.357473
4.599491,87.11198,1.253794,0.9798071,3.357473
4.649572,83.29751,1.373466,0.9798071,3.357473
4.700224,81.77173,1.443708,0.9798071,3.357473
4.75082,80.24594,1.455416,0.9799718,3.357473
4.800612,77.57583,1.343548,0.9798071,3.357473
4.850459,75.92289,1.201762,0.9798071,3.357473
4.900579,90.29069,0.9858317,0.9798071,3.357473
4.950459,109.9987,0.8336395,0.9798071,3.357473
5.00069,104.5313,0.7803072,0.9799718,3.351014
5.050594,102.7513,0.6775452,0.9798071,3.344555
5.099802,102.7513,0.4941342,0.9798071,3.351014
5.150329,99.19109,0.4668174,0.9798071,3.357473
5.200057,91.56216,0.3029185,0.9798071,3.357473
5.250695,92.7065,0.04406171,0.9798071,3.363932
5.301642,89.5278,-0.01837601,0.9798071,3.363932
5.349932,85.96764,-0.3162563,0.9798071,3.363932
5.399685,84.569,-1.075916,0.9796425,3.363932
5.450577,80.88168,-1.073314,0.9798071,3.370391
5.501568,78.97446,-1.259327,0.9799718,3.370391
5.550554,78.72016,-1.402413,0.9796425,3.376851
5.599949,75.79574,-1.533793,0.9799718,3.370391
5.650327,75.03284,-1.756227,0.9798071,3.376851
5.699574,79.48306,-1.86029,0.9799718,3.376851
5.750942,93.72369,-1.834275,0.9798071,3.38331
5.801576,105.2942,-2.12435,0.9798071,3.389769
5.850086,103.7684,-2.299956,0.9798071,3.38331
5.899819,103.2598,-2.488571,0.9798071,3.389769
5.949594,98.55534,-2.634259,0.9798071,3.389769
6.000944,94.10515,-2.795556,0.9798071,3.409146
6.051574,93.72369,-3.26384,0.9796425,3.409146
6.099804,89.90925,-3.785455,0.9796425,3.409146
6.150368,84.82329,-4.170488,0.9798071,3.415606
6.199945,83.42466,-4.339591,0.9799718,3.422065
6.251331,81.26313,-4.154879,0.9798071,3.428524
6.301573,79.3559,-4.003987,0.9798071,3.434983
6.350334,78.97446,-3.717814,0.9798071,3.434983
6.399595,78.33871,-2.476864,0.9799718,3.434983
6.450575,75.66859,-1.848583,0.9798071,3.447901
6.501592,74.39711,-1.403714,0.9796425,3.45436
6.551338,89.90925,-0.8339694,0.9799718,3.460819
6.60007,110.6345,-0.3864987,0.9798071,3.473738
6.650294,105.2942,-0.03008332,0.9798071,3.480197
6.699543,103.7684,0.3640555,0.9798071,3.486656
6.751594,104.1499,0.5955955,0.9798071,3.499574
6.801079,102.2427,0.8544523,0.9799718,3.506034
6.84995,95.12233,0.9832298,0.9798071,3.512493
6.900171,93.978,1.141926,0.9798071,3.525411
6.950095,93.59654,1.249891,0.9796425,3.53187
7.001303,89.5278,1.338345,0.9798071,3.53187
7.050807,86.09478,1.386474,0.9799718,3.544789
7.100558,83.55181,1.390376,0.9798071,3.557707
7.150339,81.26313,1.435904,0.9798071,3.564166
7.200693,79.61021,1.49574,0.9798071,3.577085
7.2513,77.32152,1.49574,0.9798071,3.577085
7.301464,76.17719,1.452814,0.9799718,3.590003
7.35031,80.11879,1.447611,0.9796425,3.602921
7.400476,86.60338,1.377369,0.9798071,3.60938
7.450569,107.4557,1.262899,0.9798071,3.622298
7.501314,104.4042,1.145828,0.9798071,3.628757
7.551682,103.387,0.9246947,0.9796425,3.635217
7.600308,101.0983,0.7816079,0.9798071,3.648135
7.650553,92.57936,0.6489277,0.9799718,3.648135
7.700225,92.96081,0.5513686,0.9798071,3.661053
7.750809,93.72369,0.4772241,0.9798071,3.667513
7.801315,88.25631,0.3822663,0.9798071,3.680431
7.850425,84.82329,-0.0170753,0.9798071,3.68689
7.900678,83.67896,-0.1575602,0.9798071,3.693349
7.950537,81.77173,-0.2278026,0.9798071,3.699808
8.001185,79.3559,-0.2863382,0.9798071,3.712727
8.050832,76.94007,-0.4112136,0.9796425,3.719186
8.10047,76.55863,-0.4697492,0.9798071,3.725645
8.150588,83.80611,-0.6492576,0.9799718,3.732104
8.201563,105.5485,-0.8651882,0.9798071,3.738563
8.251418,105.5485,-1.100631,0.9798071,3.751482
8.301429,104.1499,-1.170873,0.9798071,3.757941
8.350561,105.2942,-1.242417,0.9798071,3.7644
8.40056,102.6241,-1.265831,0.9798071,3.7644
8.450477,94.48659,-1.277538,0.9798071,3.777318
8.501063,94.2323,-1.489566,0.9799718,3.783778
8.551355,92.07076,-1.552004,0.9798071,3.790237
8.599848,87.74771,-1.700294,0.9798071,3.790237
8.650192,85.33189,-1.836876,0.9799718,3.796696
8.700183,83.80611,-1.715903,0.9798071,3.796696
8.750977,80.11879,-1.41282,0.9798071,3.803155
8.801786,78.59301,-1.113639,0.9798071,3.809614
8.850312,76.68578,-1.11494,0.9798071,3.809614
8.900087,75.92289,-1.632653,0.9798071,3.822533
8.950809,76.68578,-1.723708,0.9796425,3.822533
9.000698,109.7444,-2.09183,0.9796425,3.828992
9.051685,110.253,-1.965654,0.9799718,3.828992
9.100055,108.0915,-1.994272,0.9796425,3.835451
9.150798,106.82,-1.947443,0.9796425,3.835451
9.200306,107.5829,-1.767935,0.9798071,3.835451
9.25181,100.2083,-1.659969,0.9799718,3.84191
9.301579,97.9196,-1.648262,0.9798071,3.854828
9.349684,97.28386,-1.626149,0.9798071,3.848369
9.399776,93.34225,-0.9042118,0.9798071,3.854828
9.450676,88.38345,-0.262924,0.9799718,3.861288
9.501357,85.20473,-0.3695886,0.9796425,3.861288
9.551298,82.91606,-0.2837368,0.9798071,3.867747
9.600315,82.02603,-0.2941429,0.9798071,3.867747
9.650327,80.50024,-0.2707287,0.9796425,3.867747
9.699909,78.08442,-0.4112136,0.9799718,3.874206
9.751541,81.51743,-0.6323475,0.9798071,3.874206
9.801155,109.4901,-1.127947,0.9798071,3.874206
9.850575,110.3802,-1.192987,0.9798071,3.880665
9.900806,107.2015,-1.289245,0.9798071,3.880665
9.950406,105.93,-1.447941,0.9796425,3.887124
10.00092,105.2942,-1.623547,0.9798071,3.887124
10.05093,96.01237,-1.59493,0.9798071,3.893583
10.09981,95.37663,-1.745821,0.9798071,3.893583
10.14983,95.37663,-1.842079,0.9796425,3.893583
10.20005,91.94361,-1.80956,0.9798071,3.900043
10.25082,86.85767,-1.861591,0.9798071,3.900043
10.30179,84.0604,-1.912322,0.9798071,3.900043
10.35055,83.04321,-1.896712,0.9798071,3.906502
10.40044,81.39028,-1.851185,0.9798071,3.906502
10.45032,77.95727,-1.47916,0.9798071,3.912961
10.50131,86.73053,-1.083721,0.9798071,3.912961
10.55155,107.5829,-0.3578813,0.9796425,3.912961
10.60066,109.1087,0.2964144,0.9798071,3.912961
10.65031,107.3286,0.6684393,0.9798071,3.91942
10.69998,104.9128,1.091195,0.9798071,3.91942
10.75143,101.3526,1.542568,0.9796425,3.91942
10.80108,92.19792,1.858659,0.9798071,3.91942
10.8508,91.81647,2.109711,0.9798071,3.91942
10.90079,92.57936,2.268408,0.9798071,3.925879
10.95031,90.29069,2.317837,0.9798071,3.91942
11.00128,87.23911,2.286618,0.9798071,3.91942
11.05121,85.58618,2.231986,0.9798071,3.91942
11.10041,84.44184,2.15654,0.9799718,3.912961
11.15066,81.64457,2.065485,0.9798071,3.906502
11.20065,79.3559,1.965324,0.9796425,3.887124
11.25167,84.82329,1.883375,0.9798071,3.925879
11.30089,112.9231,1.866464,0.9798071,3.925879
11.34985,108.4729,1.807929,0.9798071,3.925879
11.40058,105.2942,1.67655,0.9798071,3.91942
11.44998,103.7684,1.567283,0.9798071,3.91942
11.50093,100.3354,1.500943,0.9798071,3.91942
11.55078,94.35944,1.372165,0.9798071,3.91942
11.5998,94.2323,1.161438,0.9798071,3.91942
11.65015,95.75809,0.9338001,0.9798071,3.912961
11.70053,89.5278,0.7685999,0.9799718,3.91942
11.7513,86.98483,0.6619358,0.9798071,3.91942
11.80083,83.67896,0.3731609,0.9798071,3.912961
11.85052,82.53461,0.1936525,0.9799718,3.912961
11.90053,80.50024,0.1663357,0.9798071,3.912961
11.9503,80.88168,0.07267915,0.9798071,3.912961
12.00193,105.93,-0.0157746,0.9798071,3.912961
12.05167,111.906,-0.05219628,0.9798071,3.912961
12.1007,108.8544,-0.066505,0.9798071,3.912961
12.14992,107.2015,-0.09382174,0.9798071,3.912961
12.2004,105.6757,-0.1263413,0.9798071,3.912961
12.2513,97.66531,-0.201787,0.9798071,3.906502
12.30191,96.13953,-0.3526785,0.9798071,3.906502
12.35067,96.52097,-0.4151162,0.9798071,3.906502
12.39991,92.96081,-0.4242216,0.9798071,3.906502
12.4509,88.7649,-0.4255223,0.9798071,3.900043
12.50117,86.09478,-0.4281237,0.9798071,3.900043
12.55095,84.0604,-0.4502372,0.9798071,3.900043
12.59993,82.28033,-0.5373902,0.9798071,3.893583
12.65029,79.48306,-0.6349489,0.9798071,3.893583
12.70041,84.3147,-0.9107158,0.9798071,3.893583
12.7514,112.1602,-1.186483,0.9798071,3.893583
12.80128,110.253,-1.24762,0.9798071,3.887124
12.85063,108.0915,-1.267131,0.9798071,3.887124
12.90063,107.2015,-1.267131,0.9796425,3.887124
12.95029,106.9472,-1.273636,0.9798071,3.880665
13.00192,98.04675,-1.276237,0.9798071,3.880665
13.05204,96.90242,-1.285343,0.9798071,3.880665
13.10065,97.02956,-1.278839,0.9798071,3.874206
13.15094,91.81647,-1.278839,0.9798071,3.874206
13.20022,88.38345,-1.278839,0.9798071,3.867747
13.25113,85.58618,-1.28144,0.9798071,3.874206
13.30166,83.80611,-1.280139,0.9798071,3.867747
13.35104,82.91606,-1.263229,0.9798071,3.874206
13.40103,82.15317,-1.18258,0.9798071,3.867747
13.45042,78.21156,-1.068111,0.9798071,3.861288
13.50129,94.35944,-0.8625868,0.9798071,3.867747
13.55144,112.2874,-0.5595037,0.9798071,3.861288
13.60078,108.8544,-0.3383698,0.9798071,3.861288
13.65104,106.0571,-0.208291,0.9796425,3.854828
13.70094,105.5485,-0.08991914,0.9798071,3.854828
13.75138,102.8784,0.3159265,0.9798071,3.854828
13.80177,96.90242,0.4434033,0.9798071,3.848369
13.85043,95.75809,0.5370599,0.9798071,3.848369
13.90042,93.46941,0.6957561,0.9798071,3.848369
13.95076,89.14634,0.7959166,0.9798071,3.848369
14.00119,86.73053,0.8557529,0.9798071,3.848369
14.0519,83.55181,0.9025812,0.9799718,3.84191
14.10133,82.15317,0.9338001,0.9798071,3.84191
14.15052,80.88168,0.9403041,0.9798071,3.84191
14.20003,77.83012,0.9442062,0.9798071,3.84191
14.25132,78.21156,0.9598156,0.9798071,3.835451
14.30116,109.1087,0.9585149,0.9798071,3.835451
14.35108,109.4901,0.9481088,0.9798071,3.835451
14.40028,106.82,0.9351008,0.9798071,3.828992
14.45027,104.4042,0.9129874,0.9798071,3.828992
14.50177,103.2598,0.8856711,0.9798071,3.828992
14.55152,95.63092,0.8609558,0.9798071,3.828992
14.60103,95.24948,0.8388428,0.9798071,3.828992
14.65064,95.24948,0.8050221,0.9799718,3.822533
14.70068,90.79928,0.7516897,0.9799718,3.822533
14.75095,87.11198,0.6866506,0.9798071,3.816073
14.80178,84.82329,0.6229118,0.9796425,3.816073
14.85075,82.91606,0.592994,0.9798071,3.816073
14.90105,81.64457,0.5240523,0.9798071,3.809614
14.95067,78.97446,0.4720207,0.9798071,3.809614
15.00104,77.44867,0.4590127,0.9799718,3.809614
15.05127,100.7169,0.3978757,0.9799718,3.809614
15.10067,110.5073,0.3588521,0.9798071,3.803155
15.15066,106.3114,0.3159265,0.9796425,3.809614
15.2012,104.9128,0.274301,0.9798071,3.803155
15.25164,104.1499,0.1637343,0.9799718,3.796696
15.30115,101.0983,0.08958928,0.9798071,3.796696
15.35013,94.48659,0.04015959,0.9796425,3.796696
15.40091,94.99519,0.02194827,0.9798071,3.796696
15.45092,92.96081,0.001135537,0.9798071,3.790237
15.50126,88.38345,-0.02878213,0.9799718,3.790237
15.55116,85.58618,-0.07691161,0.9798071,3.790237
15.60114,83.29751,-0.1094312,0.9798071,3.783778
15.64995,80.88168,-0.1354467,0.9798071,3.783778
15.70068,80.24594,-0.1783729,0.9798071,3.783778
15.75174,77.44867,-0.2265019,0.9798071,3.783778
15.80212,75.41429,-0.2265019,0.9798071,3.777318
15.85103,80.62739,-0.249916,0.9798071,3.777318
15.90054,95.63092,-0.2720295,0.9798071,3.770859
15.95015,106.4386,-0.2837368,0.9796425,3.770859
16.00116,105.2942,-0.2876389,0.9798071,3.770859
16.05177,104.7856,-0.3123537,0.9798071,3.770859
16.10077,100.2083,-0.3357679,0.9798071,3.7644
16.15016,96.13953,-0.3526785,0.9798071,3.7644
16.20118,95.37663,-0.365686,0.9798071,3.7644
16.25174,93.85085,-0.3760926,0.9798071,3.7644
16.30176,89.14634,-0.3891002,0.9798071,3.757941
16.35002,85.71333,-0.3930028,0.9798071,3.757941
16.40027,84.44184,-0.420319,0.9799718,3.757941
16.45075,81.26313,-0.4359285,0.9798071,3.751482
16.50174,79.61021,-0.4788546,0.9799718,3.751482
16.55103,77.06723,-0.5217808,0.9796425,3.745023
16.60107,75.03284,-0.536089,0.9798071,3.751482
16.65067,91.18073,-0.6258435,0.9798071,3.745023
16.70016,110.3802,-1.06681,0.9796425,3.751482
16.75213,106.6929,-1.345179,0.9798071,3.745023
16.80112,105.1671,-1.323065,0.9798071,3.745023
16.85026,104.9128,-1.325667,0.9799718,3.738563
16.9004,102.7513,-1.321765,0.9798071,3.738563
16.95043,95.12233,-1.307456,0.9798071,3.738563
17.00209,95.24948,-1.2151,0.9798071,3.738563
17.05194,93.85085,-1.129248,0.9799718,3.732104
17.10113,89.2735,-0.9146184,0.9798071,3.732104
17.1504,86.98483,-0.6245428,0.9799718,3.732104
17.20061,83.67896,-0.433327,0.9798071,3.725645
17.25114,80.88168,-0.2837368,0.9798071,3.725645
17.30191,79.48306,-0.1614628,0.9798071,3.725645
17.35015,78.21156,-0.04699345,0.9799718,3.719186
17.40027,76.68578,0.09609329,0.9798071,3.725645
17.45037,73.88851,0.3939736,0.9799718,3.719186
17.50162,76.68578,0.4876302,0.9798071,3.719186
17.55128,97.53816,0.5383606,0.9798071,3.719186
17.60089,110.7616,0.5630759,0.9798071,3.719186
17.65186,104.4042,0.5643766,0.9799718,3.712727
17.7005,103.5141,0.5045403,0.9798071,3.712727
17.75124,101.4798,0.4564113,0.9798071,3.712727
17.80014,93.72369,0.3978757,0.9798071,3.706268
17.85132,93.72369,0.2495862,0.9799718,3.706268
17.90125,93.72369,0.1377183,0.9798071,3.706268
17.95115,88.7649,0.04926501,0.9796425,3.706268
18.00011,85.33189,-0.006669177,0.9798071,3.706268
18.05026,83.80611,-0.06520429,0.9798071,3.699808
18.10075,81.39028,-0.1185366,0.9799718,3.699808
18.15169,80.11879,-0.188779,0.9796425,3.699808
18.20053,77.95727,-0.2265019,0.9798071,3.699808
18.25051,76.05004,-0.2408106,0.9798071,3.693349
18.30012,82.91606,-0.2603226,0.9798071,3.693349
18.35126,104.1499,-0.2941429,0.9796425,3.693349
18.40125,108.7272,-0.3084516,0.9798071,3.693349
18.45104,102.7513,-0.317557,0.9796425,3.693349
18.50069,101.8612,-0.3630846,0.9798071,3.68689
18.55015,94.99519,-0.3825962,0.9796425,3.68689
18.60105,93.46941,-0.3982061,0.9798071,3.68689
18.65163,93.34225,-0.4086122,0.9798071,3.68689
18.70013,90.03638,-0.4190183,0.9798071,3.68689
18.75064,86.09478,-0.4255223,0.9798071,3.680431
18.80116,84.18755,-0.4385304,0.9796425,3.680431
18.85112,81.00883,-0.4489365,0.9798071,3.680431
18.90185,79.10161,-0.4567412,0.9798071,3.680431
18.95093,77.57583,-0.4684485,0.9798071,3.680431
19.00051,76.30434,-0.4918626,0.9798071,3.673972
19.05049,73.88851,-0.5165775,0.9798071,3.673972
19.10062,74.26996,-0.5217808,0.9799718,3.673972
19.15153,101.8612,-0.5425931,0.9798071,3.673972
19.20113,109.6173,-0.5673084,0.9798071,3.667513
19.25075,105.1671,-0.6947852,0.9796425,3.667513
19.30051,103.7684,-1.310058,0.9798071,3.667513
19.35025,103.0055,-1.414121,0.9798071,3.661053
19.40162,100.7169,-1.403714,0.9796425,3.661053
19.45062,92.96081,-1.411519,0.9799718,3.667513
19.50037,93.34225,-1.418023,0.9798071,3.661053
19.55029,91.18073,-1.415421,0.9796425,3.661053
19.60012,87.11198,-1.41282,0.9798071,3.661053
19.65149,84.82329,-1.407617,0.9798071,3.661053
19.70023,82.53461,-1.406316,0.9798071,3.661053
19.75112,80.11879,-1.408917,0.9798071,3.654594
19.80116,78.21156,-1.407617,0.9798071,3.654594
19.85049,77.06723,-1.406316,0.9798071,3.654594
19.9014,75.41429,-1.423226,0.9796425,3.654594
19.95074,73.12562,-1.410218,0.9796425,3.648135
20.00028,87.36626,-1.415421,0.9796425,3.648135
20.05076,111.906,-1.414121,0.9798071,3.648135
20.10047,108.0915,-1.410218,0.9798071,3.648135
20.15147,104.5313,-1.408917,0.9799718,3.648135
20.20098,104.277,-1.410218,0.9798071,3.648135
20.25126,103.387,-1.410218,0.9798071,3.648135
20.30112,95.37663,-1.414121,0.9798071,3.648135
20.35114,94.48659,-1.410218,0.9798071,3.648135
20.40226,94.48659,-1.388105,0.9798071,3.641676
20.4511,89.5278,-1.354284,0.9798071,3.641676
20.50061,86.09478,-1.325667,0.9799718,3.641676
20.55088,83.93326,-1.208596,0.9796425,3.641676
20.60111,81.89888,-1.052502,0.9798071,3.635217
20.65151,79.3559,-0.7897429,0.9798071,3.635217
20.70072,77.83012,-0.5022688,0.9798071,3.635217
20.75137,76.55863,-0.3825962,0.9799718,3.635217
20.80139,74.14281,-0.2486153,0.9798071,3.635217
20.85129,73.50706,0.007639545,0.9799718,3.635217
20.90211,98.04675,0.1949532,0.9798071,3.628757
20.95037,110.253,0.2469848,0.9798071,3.628757
21.00099,105.0399,0.3016177,0.9798071,3.628757
21.05039,102.3698,0.2834064,0.9798071,3.628757
21.10073,102.6241,0.2508869,0.9796425,3.628757
21.15202,98.42819,0.1949532,0.9798071,3.628757
21.20049,92.7065,0.158531,0.9798071,3.628757
21.25124,93.46941,0.09479259,0.9798071,3.628757
21.3006,91.94361,0.06357373,0.9799718,3.622298
21.35024,86.85767,0.03365558,0.9799718,3.622298
21.40186,85.71333,-0.000165169,0.9798071,3.622298
21.45124,82.53461,-0.02748143,0.9798071,3.622298
21.50025,81.00883,-0.0704076,0.9798071,3.622298
21.55072,79.48306,-0.127642,0.9798071,3.622298
21.60025,77.06723,-0.1575602,0.9799718,3.622298
21.65134,77.32152,-0.1809743,0.9799718,3.615839
21.70073,82.15317,-0.2121932,0.9796425,3.615839
21.75098,109.4901,-0.2512167,0.9796425,3.622298
21.80098,104.5313,-0.2707287,0.9798071,3.615839
21.85028,103.387,-0.298045,0.9798071,3.615839
21.90125,102.6241,-0.3331665,0.9798071,3.615839
21.9505,94.61374,-0.3435726,0.9798071,3.60938
22.00026,92.7065,-0.3643853,0.9798071,3.615839
22.05097,93.46941,-0.3682879,0.9798071,3.615839
22.10024,89.2735,-0.3734908,0.9798071,3.60938
22.15153,86.98483,-0.3812954,0.9799718,3.60938
22.20099,83.42466,-0.3877995,0.9798071,3.60938
22.25076,80.62739,-0.4073115,0.9798071,3.60938
22.30072,78.97446,-0.4164169,0.9796425,3.60938
22.35127,77.95727,-0.4294249,0.9796425,3.602921
22.4016,76.30434,-0.4827572,0.9798071,3.60938
22.45048,74.14281,-0.4905619,0.9798071,3.602921
22.50074,81.00883,-0.5113742,0.9798071,3.602921
22.55079,103.7684,-0.5412923,0.9798071,3.602921
22.60027,110.1259,-0.5608044,0.9799718,3.602921
22.65212,104.4042,-0.5816166,0.9799718,3.602921
22.70076,103.0055,-0.6089333,0.9796425,3.596462
22.751,102.2427,-0.6544609,0.9798071,3.602921
22.80087,94.10515,-0.6700704,0.9798071,3.602921
22.85036,93.34225,-0.7481175,0.9799718,3.596462
22.90149,92.83366,-0.7845396,0.9798071,3.596462
22.9507,89.14634,-0.8222625,0.9898543,3.596462
23.00128,86.73053,-0.8664894,0.9898543,3.596462
23.0506,83.42466,-0.9419346,0.9896896,3.596462
23.1015,82.15317,-1.006974,0.9898543,3.596462
23.1525,79.22876,-1.059006,0.9898543,3.596462
23.20073,78.21156,-1.125346,0.9898543,3.590003
23.25037,76.68578,-1.192987,0.9898543,3.590003
23.30111,73.88851,-1.265831,0.9896896,3.590003
23.35062,76.17719,-1.294448,0.9896896,3.590003
23.40223,91.81647,-1.359487,0.9896896,3.590003
23.45122,109.363,-1.415421,0.9900191,3.590003
23.50076,105.5485,-1.433632,0.9898543,3.590003
23.55062,105.2942,-1.431031,0.9898543,3.583544
23.60036,105.2942,-1.431031,0.9898543,3.590003
23.65212,99.57254,-1.42973,0.9896896,3.583544
23.70108,95.75809,-1.433632,0.9900191,3.583544
23.75045,95.24948,-1.432331,0.9896896,3.583544
23.80136,92.19792,-1.436234,0.9898543,3.583544
23.85109,88.38345,-1.421925,0.9898543,3.583544
23.90221,85.07759,-1.376398,0.9898543,3.583544
23.95047,83.17036,-1.343878,0.9798071,3.583544
24.00197,80.11879,-1.303554,0.9798071,3.583544
24.05096,79.3559,-1.14876,0.9798071,3.577085
24.1011,77.44867,-0.9861615,0.9798071,3.577085
24.15212,75.41429,-0.7793363,0.9796425,3.577085
24.20102,74.26996,-0.4853586,0.9796425,3.577085
24.25203,77.57583,-0.3487759,0.9798071,3.577085
24.30148,110.7616,-0.2473146,0.9798071,3.577085
24.3511,106.3114,-0.1120326,0.9799718,3.577085
24.40247,106.1843,0.2339767,0.9798071,3.570625
24.45059,104.5313,0.3185279,0.9799718,3.577085
24.50158,103.7684,0.3263326,0.9798071,3.570625
24.55047,94.99519,0.3341373,0.9798071,3.577085
24.60073,94.48659,0.328934,0.9798071,3.570625
24.65224,94.86804,0.3159265,0.9798071,3.570625
24.70133,90.92643,0.2847071,0.9798071,3.570625
24.75161,87.49342,0.2248713,0.9798071,3.570625
24.80087,85.20473,0.1702383,0.9798071,3.570625
24.85148,82.91606,0.1117027,0.9799718,3.570625
24.90221,81.77173,0.07528056,0.9798071,3.570625
24.95046,80.11879,0.04666312,0.9898543,3.570625
25.00207,77.70296,0.02194827,0.9898543,3.564166
25.05071,80.11879,0.001135537,0.9898543,3.564166
25.10045,107.4557,-0.02488002,0.9898543,3.564166
25.15159,110.253,-0.05609887,0.9898543,3.564166
25.20149,105.5485,-0.07951301,0.9900191,3.564166
25.25233,104.1499,-0.1120326,0.9896896,3.564166
25.30074,103.7684,-0.1484547,0.9896896,3.564166
25.3515,96.13953,-0.1640642,0.9896896,3.564166
25.40223,94.2323,-0.1744703,0.9898543,3.564166
25.4513,95.24948,-0.1848769,0.9898543,3.564166
25.50185,90.92643,-0.2069903,0.9900191,3.557707
25.5505,86.73053,-0.2173965,0.9898543,3.557707
25.60075,85.71333,-0.2408106,0.9898543,3.557707
25.65207,82.66177,-0.2538186,0.9798071,3.557707
25.70129,81.64457,-0.2772328,0.9798071,3.551248
25.75224,79.99165,-0.3227603,0.9799718,3.557707
25.80063,77.70296,-0.3604832,0.9798071,3.557707
25.85125,76.17719,-0.3539792,0.9798071,3.557707
25.9016,83.04321,-0.3812954,0.9796425,3.551248
25.95149,110.253,-0.4021082,0.9798071,3.557707
26.00223,106.5657,-0.4216202,0.9798071,3.551248
26.0506,105.2942,-0.4307256,0.9798071,3.551248
26.10108,106.0571,-0.4489365,0.9798071,3.557707
26.15197,101.6069,-0.4645459,0.9796425,3.551248
26.20131,96.13953,-0.4762532,0.9798071,3.551248
26.25149,96.77527,-0.4931633,0.9799718,3.551248
26.30181,96.64812,-0.494464,0.9798071,3.551248
26.35107,90.29069,-0.4996673,0.9798071,3.551248
26.40195,89.5278,-0.4970655,0.9798071,3.551248
26.45083,85.20473,-0.5048702,0.9799718,3.551248
26.50206,82.78893,-0.5282843,0.9798071,3.544789
26.55071,81.77173,-0.5451949,0.9798071,3.551248
26.60152,80.24594,-0.5738119,0.9798071,3.544789
26.65187,77.70296,-0.6518595,0.9898543,3.544789
26.7013,75.92289,-0.6869805,0.9898543,3.551248
26.75207,80.75454,-1.403714,0.9896896,3.544789
26.80121,111.906,-1.580621,0.9896896,3.544789
26.85098,108.7272,-1.537695,0.9900191,3.544789
26.90223,107.0743,-1.536395,0.9898543,3.544789
26.95071,107.5829,-1.532492,0.9896896,3.544789
27.00171,105.8028,-1.531191,0.9896896,3.544789
27.0512,97.79247,-1.529891,0.9898543,3.538329
27.10046,97.53816,-1.529891,0.9898543,3.544789
27.15158,97.41101,-1.525988,0.9896896,3.538329
27.2012,90.67213,-1.527289,0.9898543,3.538329
27.25263,88.5106,-1.516883,0.9896896,3.538329
27.30124,86.60338,-1.471355,0.9898543,3.544789
27.35096,85.33189,-1.428429,0.9896896,3.538329
27.40222,84.18755,-1.355585,0.9896896,3.538329
27.45147,81.13599,-1.285343,0.9900191,3.538329
27.50211,79.99165,-1.125346,0.9898543,3.538329
27.55107,76.43149,-0.9185205,0.9898543,3.538329
27.60157,75.92289,-0.5803159,0.9898543,3.538329
27.65244,105.8028,-0.3461745,0.9898543,3.53187
27.70098,112.2874,0.05056571,0.9896896,3.53187
27.75256,107.4557,0.2287734,0.9896896,3.53187
27.8007,105.5485,0.3614536,0.9898543,3.538329
27.85148,107.2015,0.409583,0.9900191,3.53187
27.90171,104.1499,0.4629153,0.9898543,3.53187
27.9511,98.04675,0.4850288,0.9898543,3.53187
28.00169,97.28386,0.5006382,0.9898543,3.53187
28.05088,96.77527,0.499337,0.9898543,3.53187
28.10062,91.81647,0.4863295,0.9898543,3.525411
28.15272,88.00201,0.4603134,0.9896896,3.53187
28.20051,86.34908,0.4290946,0.9900191,3.525411
28.25273,83.93326,0.3809656,0.9898543,3.525411
28.30144,82.40748,0.3029185,0.9896896,3.53187
28.35068,79.73734,0.2144647,0.9898543,3.525411
28.4022,78.72016,0.1871485,0.9900191,3.525411
28.4512,88.7649,0.1195074,0.9898543,3.53187
28.50244,109.8716,0.07658127,0.9898543,3.53187
28.55054,106.4386,0.05316712,0.9898543,3.525411
28.60131,104.9128,0.03495628,0.9896896,3.525411
28.65265,104.1499,-0.005367992,0.9896896,3.525411
28.70074,100.3354,-0.03008332,0.9896896,3.525411
28.75252,95.75809,-0.05219628,0.9898543,3.525411
28.80081,95.37663,-0.07821231,0.9898543,3.525411
28.85157,93.85085,-0.1016265,0.9900191,3.53187
28.90173,89.90925,-0.1315446,0.9898543,3.525411
28.95145,86.73053,-0.1588609,0.9898543,3.53187
29.00243,84.44184,-0.1679668,0.9898543,3.525411
29.05069,82.02603,-0.1796736,0.9898543,3.53187
29.10174,81.64457,-0.2030877,0.9898543,3.525411
29.15223,78.84731,-0.2382092,0.9898543,3.525411
29.20056,76.55863,-0.2382092,0.9898543,3.53187
29.25207,84.3147,-0.25642,0.9900191,3.53187
29.30145,110.8888,-0.2837368,0.9900191,3.53187
29.35159,107.8372,-0.3058497,0.9898543,3.53187
29.40156,107.4557,-0.3266625,0.9898543,3.53187
29.45119,108.3458,-0.3695886,0.9900191,3.53187
29.50262,104.4042,-0.3904014,0.9898543,3.53187
29.55144,96.90242,-0.4177176,0.9898543,3.53187
29.60107,96.52097,-0.4359285,0.9896896,3.538329
29.65156,95.75809,-0.4411317,0.9898543,3.53187
29.70135,89.40065,-0.4476358,0.9898543,3.53187
29.75269,87.23911,-0.4528391,0.9898543,3.53187
29.80073,84.44184,-0.4606438,0.9900191,3.538329
29.85107,82.40748,-0.4684485,0.9898543,3.53187
29.9027,81.00883,-0.4736513,0.9896896,3.53187
29.95125,79.3559,-0.4866593,0.9898543,3.538329
30.00229,77.44867,-0.536089,0.9896896,3.538329
30.05097,75.16,-0.5621051,0.9900191,3.538329
30.10092,82.53461,-0.6115348,0.9898543,3.538329
30.15176,104.6585,-1.475258,0.9896896,3.538329
30.2011,111.6517,-1.663872,0.9898543,3.538329
30.25218,106.3114,-1.600133,0.9900191,3.538329
30.30121,106.4386,-1.588426,0.9898543,3.538329
30.35093,106.3114,-1.587125,0.9896896,3.538329
30.40268,105.6757,-1.576719,0.9898543,3.538329
30.45118,100.2083,-1.574117,0.9900191,3.538329
30.50173,98.42819,-1.568914,0.9900191,3.538329
30.55143,94.10515,-1.561109,0.9898543,3.544789
30.60081,89.78209,-1.558508,0.9898543,3.538329
30.65209,87.49342,-1.553305,0.9898543,3.538329
30.70143,84.569,-1.552004,0.9898543,3.538329
30.75267,82.15317,-1.549402,0.9898543,3.538329
30.80104,80.37309,-1.546801,0.9896896,3.538329
30.85184,79.3559,-1.527289,0.9898543,3.538329
30.90193,77.32152,-1.470054,0.9898543,3.538329
30.95168,74.52426,-1.388105,0.9900191,3.538329
31.00181,94.61374,-1.291847,0.9898543,3.538329
31.05169,111.7788,-1.18128,0.9900191,3.538329
31.10093,109.9987,-0.9757554,0.9898543,3.53187
31.15168,105.1671,-0.6544609,0.9898543,3.538329
31.20066,106.6929,-0.3812954,0.9898543,3.538329
31.25205,104.0227,0.1416209,0.9898543,3.538329
31.30105,97.53816,0.348446,0.9900191,3.538329
31.35185,96.90242,0.4902316,0.9898543,3.538329
31.40193,96.77527,0.5903922,0.9898543,3.538329
31.45144,92.45221,0.7178695,0.9898543,3.538329
31.50247,89.5278,0.8011199,0.9900191,3.53187
31.55069,86.60338,0.8635576,0.9898543,3.538329
31.60118,83.80611,0.8986786,0.9898543,3.538329
31.65269,82.53461,0.9259953,0.9898543,3.538329
31.70141,80.75454,0.9246947,0.9898543,3.53187
31.75219,77.83012,0.9116867,0.9900191,3.538329
31.80155,76.55863,0.8843704,0.9898543,3.538329
31.8513,99.06393,0.8297369,0.9898543,3.53187
31.90219,108.3458,0.7607952,0.9898543,3.53187
31.95183,104.7856,0.7243735,0.9898543,3.538329
32.00243,102.6241,0.6671386,0.9896896,3.538329
32.05168,103.6413,0.6034002,0.9900191,3.53187
32.10067,99.31824,0.5630759,0.9898543,3.538329
32.15284,95.24948,0.5019389,0.9900191,3.538329
32.20167,95.24948,0.4590127,0.9898543,3.53187
32.25253,91.43503,0.4147859,0.9900191,3.538329
32.30068,88.63776,0.3614536,0.9900191,3.538329
32.35071,86.73053,0.2899104,0.9898543,3.53187
32.40279,84.82329,0.232676,0.9898543,3.53187
32.45072,83.55181,0.2053593,0.9898543,3.538329
32.50245,81.39028,0.1507263,0.9900191,3.53187
32.55168,78.72016,0.1012966,0.9900191,3.53187
32.60178,80.24594,0.08048386,0.9896896,3.53187
32.65178,105.4214,0.03235487,0.9898543,3.53187
32.70103,109.8716,-0.00276658,0.9898543,3.53187
32.75283,105.93,-0.05349746,0.9898543,3.53187
32.80144,105.1671,-0.08341561,0.9898543,3.53187
32.85144,105.2942,-0.1484547,0.9900191,3.53187
32.90279,99.44539,-0.1809743,0.9900191,3.53187
32.95096,97.28386,-0.2030877,0.9898543,3.53187
33.00179,96.90242,-0.2356073,0.9898543,3.525411
33.05141,92.07076,-0.2525179,0.9898543,3.53187
33.10143,88.12916,-0.2707287,0.9898543,3.525411
33.15193,86.85767,-0.2876389,0.9898543,3.525411
33.20131,84.3147,-0.304549,0.9898543,3.525411
33.25273,82.91606,-0.3396705,0.9898543,3.525411
33.30103,81.26313,-0.37219,0.9898543,3.53187
33.35117,78.59301,-0.4008075,0.9900191,3.525411
33.40244,77.83012,-0.3969049,0.9898543,3.525411
33.45117,95.24948,-0.4255223,0.9900191,3.525411
33.50197,112.1602,-0.4437332,0.9898543,3.518952
33.55095,108.9815,-0.4580419,0.9898543,3.518952
33.60157,106.3114,-0.5217808,0.9898543,3.525411
33.65282,106.4386,-1.120143,0.9898543,3.518952
33.70078,103.2598,-1.324366,0.9900191,3.525411
33.7522,96.77527,-1.304854,0.9898543,3.518952
33.80179,96.39381,-1.311358,0.9900191,3.518952
33.85099,93.978,-1.315261,0.9900191,3.525411
33.90241,90.29069,-1.319163,0.9898543,3.518952
33.95195,87.11198,-1.316561,0.9896896,3.518952
34.00225,84.569,-1.319163,0.9898543,3.518952
34.05166,82.02603,-1.317862,0.9898543,3.518952
34.10178,81.39028,-1.319163,0.9898543,3.518952
34.15242,78.97446,-1.325667,0.9898543,3.518952
34.20104,77.44867,-1.343878,0.9898543,3.518952
34.25266,76.17719,-1.337374,0.9898543,3.518952
34.30139,84.44184,-1.342577,0.9900191,3.512493
34.35157,107.2015,-1.345179,0.9896896,3.518952
34.40221,107.2015,-1.34648,0.9898543,3.512493
34.4519,104.9128,-1.341277,0.9898543,3.518952
34.50179,105.6757,-1.339976,0.9898543,3.512493
34.55133,103.0055,-1.339976,0.9898543,3.512493
34.60114,97.53816,-1.339976,0.9898543,3.512493
34.65219,97.15671,-1.338675,0.9898543,3.512493
34.70079,96.39381,-1.321765,0.9898543,3.512493
34.75204,91.81647,-1.308757,0.9898543,3.506034
34.80145,90.54498,-1.277538,0.9898543,3.512493
34.85082,86.98483,-1.157866,0.9900191,3.506034
34.90232,84.44184,-1.036892,0.9898543,3.506034
34.95107,82.66177,-0.8664894,0.9898543,3.512493
35.00229,81.64457,-0.6219414,0.9898543,3.506034
35.05145,78.97446,-0.4606438,0.9900191,3.506034
35.10116,77.32152,-0.3071509,0.9898543,3.506034
35.15191,86.60338,-0.2004863,0.9896896,3.506034
35.20178,112.6688,-0.1393493,0.9898543,3.506034
35.25278,109.8716,-0.04309086,0.9900191,3.506034
35.30107,107.9643,0.200156,0.9900191,3.506034
35.35165,108.3458,0.3991764,0.9900191,3.506034
35.40278,108.7272,0.4082823,0.9900191,3.499574
35.45207,99.06393,0.4277939,0.9898543,3.506034
35.50298,98.6825,0.4290946,0.9898543,3.499574
35.55121,98.80965,0.4212899,0.9898543,3.499574
35.60153,93.08795,0.403079,0.9898543,3.499574
35.65206,90.92643,0.3575515,0.9898543,3.499574
35.7014,87.23911,0.2638949,0.9898543,3.499574
35.7529,84.82329,0.2092619,0.9898543,3.499574
35.80091,83.55181,0.1858477,0.9896896,3.499574
35.85205,80.50024,0.1377183,0.9898543,3.493115
35.90251,78.46587,0.1208081,0.9900191,3.499574
35.95169,93.46941,0.0986947,0.9898543,3.499574
36.00242,110.253,0.07788197,0.9898543,3.493115
36.05117,108.0915,0.06877656,0.9900191,3.493115
36.10117,105.6757,0.05967113,0.9898543,3.493115
36.15196,104.0227,0.01934686,0.9898543,3.493115
36.20117,102.8784,-0.001465875,0.9898543,3.493115
36.25276,96.39381,-0.02227861,0.9900191,3.493115
36.30207,96.26666,-0.04699345,0.9898543,3.493115
36.35166,96.77527,-0.05089557,0.9898543,3.486656
36.40231,90.29069,-0.0704076,0.9900191,3.486656
36.45168,87.11198,-0.1068298,0.9898543,3.486656
36.50269,85.58618,-0.14065,0.9898543,3.493115
36.5514,83.17036,-0.1497554,0.9898543,3.486656
36.60183,81.51743,-0.1627635,0.9898543,3.493115
36.65216,79.73734,-0.1900797,0.9900191,3.486656
36.70178,77.70296,-0.1939823,0.9898543,3.486656
36.75245,81.13599,-0.208291,0.9898543,3.486656
36.80101,107.0743,-0.2291033,0.9898543,3.486656
36.85204,108.6001,-0.2369085,0.9898543,3.486656
36.90244,106.1843,-0.2525179,0.9898543,3.480197
36.9514,105.1671,-0.2733302,0.9898543,3.486656
37.00192,104.6585,-0.3162563,0.9898543,3.486656
37.05162,96.13953,-0.3305651,0.9900191,3.480197
37.10117,96.13953,-0.3604832,0.9898543,3.480197
37.1524,95.12233,-0.3799948,0.9898543,3.480197
37.20169,91.43503,-0.3917021,0.9898543,3.480197
37.25275,87.62056,-0.4086122,0.9898543,3.480197
37.30101,85.84048,-0.4320263,0.9898543,3.480197
37.35167,83.04321,-0.4619445,0.9898543,3.480197
37.40277,82.02603,-0.4866593,0.9898543,3.480197
37.45206,80.37309,-0.5399916,0.9898543,3.480197
37.50202,78.59301,-0.6557617,0.9898543,3.480197
37.55202,76.30434,-0.8261647,0.9898543,3.480197
37.60202,82.40748,-1.747122,0.9896896,3.480197
37.65229,96.77527,-1.698993,0.9898543,3.480197
37.70216,107.5829,-1.697692,0.9898543,3.473738
37.75202,105.93,-1.692489,0.9900191,3.473738
37.8014,106.3114,-1.685985,0.9898543,3.480197
37.85116,105.93,-1.67818,0.9900191,3.473738
37.90316,99.31824,-1.675579,0.9898543,3.473738
37.95118,96.39381,-1.672977,0.9898543,3.473738
38.0032,96.52097,-1.670375,0.9896896,3.473738
38.05137,91.05358,-1.665172,0.9898543,3.473738
38.10114,88.00201,-1.666473,0.9898543,3.473738
38.15195,85.20473,-1.665172,0.9900191,3.473738
38.20163,82.66177,-1.666473,0.9900191,3.473738
38.25279,81.51743,-1.662571,0.9898543,3.467279
38.30151,79.73734,-1.641758,0.9799718,3.467279
38.3514,78.21156,-1.61184,0.9798071,3.467279
38.40214,76.55863,-1.558508,0.9798071,3.467279
38.45104,74.14281,-1.441437,0.9801366,3.467279
38.5024,88.7649,-1.354284,0.9799718,3.467279
38.55189,111.2702,-1.269733,0.9799718,3.467279
38.60154,109.4901,-1.144858,0.9798071,3.467279
38.65246,105.5485,-0.9744547,0.9798071,3.460819
38.70205,105.5485,-0.8001491,0.9798071,3.460819
38.75303,103.0055,-0.5113742,0.9798071,3.460819
38.80138,97.15671,-0.1354467,0.9799718,3.460819
38.85143,96.77527,0.07528056,0.9799718,3.467279
38.90201,94.61374,0.158531,0.9798071,3.460819
38.9515,91.05358,0.2769024,0.9898543,3.467279
39.00256,89.40065,0.3627548,0.9898543,3.460819
39.05257,85.96764,0.3809656,0.9898543,3.460819
39.10165,84.0604,0.3926724,0.9898543,3.460819
39.15275,82.02603,0.3809656,0.9900191,3.460819
39.20112,79.3559,0.3198286,0.9898543,3.460819
39.25301,77.06723,0.2365782,0.9898543,3.45436
39.30165,75.66859,0.1871485,0.9898543,3.460819
39.35138,98.55534,0.1117027,0.9898543,3.460819
39.40202,108.6001,0.08568717,0.9898543,3.460819
39.45116,104.1499,0.0479643,0.9900191,3.45436
39.50301,102.497,0.02455016,0.9900191,3.45436
39.5514,101.8612,-0.011872,0.9898543,3.460819
39.60164,94.2323,-0.05479817,0.9898543,3.45436
39.65224,93.72369,-0.1055286,0.9900191,3.45436
39.70214,94.10515,-0.1354467,0.9898543,3.45436
39.75292,91.05358,-0.1484547,0.9898543,3.45436
39.80128,86.73053,-0.1705682,0.9898543,3.45436
39.85154,84.69615,-0.1874783,0.9900191,3.45436
39.90313,81.77173,-0.2134939,0.9898543,3.45436
39.95165,79.73734,-0.2252012,0.9798071,3.447901
40.00239,79.10161,-0.2551193,0.9798071,3.447901
40.05121,75.79574,-0.249916,0.9799718,3.45436
40.10187,78.59301,-0.25642,0.9798071,3.45436
40.15278,78.46587,-0.2681274,0.9798071,3.447901
40.20142,105.8028,-0.2733302,0.9798071,3.447901
40.25251,103.7684,-0.269428,0.9799718,3.447901
40.30114,103.0055,-0.2915415,0.9799718,3.447901
40.35213,102.6241,-0.3305651,0.9798071,3.447901
40.4025,95.63092,-0.3396705,0.9799718,3.447901
40.45115,93.72369,-0.3539792,0.9801366,3.447901
40.50206,94.10515,-0.3604832,0.9799718,3.447901
40.55112,90.67213,-0.3747914,0.9798071,3.447901
40.60202,86.73053,-0.3838973,0.9798071,3.447901
40.65313,84.69615,-0.3904014,0.9798071,3.447901
40.70113,82.15317,-0.3969049,0.9799718,3.447901
40.75299,80.62739,-0.4060108,0.9798071,3.447901
40.80136,79.3559,-0.4255223,0.9799718,3.441442
40.85107,76.30434,-0.4671473,0.9799718,3.441442
40.90276,74.39711,-0.4593426,0.9799718,3.441442
40.95216,80.37309,-0.4801553,0.9799718,3.441442
41.0024,95.50377,-0.5295855,0.9798071,3.441442
41.05212,107.0743,-0.6219414,0.9798071,3.441442
41.10162,105.4214,-0.9198212,0.9798071,3.441442
41.15276,104.9128,-1.234612,0.9798071,3.441442
41.20151,102.2427,-1.243717,0.9798071,3.441442
41.25269,96.01237,-1.258026,0.9798071,3.441442
41.30211,95.63092,-1.265831,0.9798071,3.441442
41.35213,93.34225,-1.267131,0.9798071,3.441442
41.40212,91.81647,-1.267131,0.9799718,3.441442
41.45174,85.96764,-1.269733,0.9799718,3.434983
41.50276,83.17036,-1.273636,0.9798071,3.434983
41.5514,81.26313,-1.277538,0.9798071,3.434983
41.60112,79.22876,-1.278839,0.9799718,3.441442
41.65263,77.44867,-1.28144,0.9799718,3.434983
41.70201,76.17719,-1.284042,0.9799718,3.434983
41.7651,74.14281,-1.285343,0.9798071,3.434983
41.80127,74.14281,-1.273636,0.9799718,3.434983
41.85162,93.34225,-1.256725,0.9799718,3.434983
41.90252,107.4557,-1.212498,0.9798071,3.434983
41.95193,104.6585,-1.075916,0.9799718,3.434983
42.00251,103.8956,-0.8300672,0.9796425,3.434983
42.05111,105.2942,-0.5634058,0.9799718,3.428524
42.10199,100.4626,-0.324061,0.9798071,3.428524
42.15312,96.77527,-0.1991856,0.9798071,3.428524
42.20197,96.01237,-0.1003257,0.9798071,3.428524
42.25303,93.34225,0.01154214,0.9798071,3.428524
42.30201,89.5278,0.1468237,0.9799718,3.428524
42.35215,87.87486,0.5591733,0.9798071,3.428524
42.40273,85.96764,0.6034002,0.9798071,3.428524
42.45217,82.02603,0.689252,0.9799718,3.428524
42.50251,81.39028,0.7607952,0.9799718,3.428524
42.55197,79.73734,0.7842093,0.9798071,3.428524
42.60163,76.94007,0.7933152,0.9799718,3.428524
42.65285,80.11879,0.8024206,0.9799718,3.428524
42.7015,93.34225,0.7972173,0.9798071,3.428524
42.75222,108.7272,0.7894126,0.9798071,3.428524
42.80217,106.3114,0.7725025,0.9798071,3.422065
42.85191,105.1671,0.6918535,0.9799718,3.422065
42.90237,104.6585,0.6424237,0.9799718,3.422065
42.95153,97.41101,0.6125056,0.9798071,3.422065
43.00337,96.01237,0.592994,0.9798071,3.422065
43.05149,96.39381,0.5643766,0.9799718,3.422065
43.10162,92.19792,0.4889309,0.9799718,3.422065
43.15336,88.25631,0.4564113,0.9799718,3.422065
43.20175,88.00201,0.4225906,0.9799718,3.422065
43.25262,84.44184,0.3913717,0.9798071,3.422065
43.30209,83.55181,0.3562508,0.9798071,3.422065
43.35222,80.50024,0.3029185,0.9798071,3.422065
43.4026,78.97446,0.280805,0.9798071,3.422065
43.45173,93.72369,0.2469848,0.9798071,3.422065
43.5031,109.1087,0.1819451,0.9799718,3.415606
43.55148,107.4557,0.1260114,0.9798071,3.422065
43.60186,105.0399,0.110402,0.9798071,3.415606
43.65279,104.4042,0.08958928,0.9799718,3.415606
43.70228,102.7513,0.05706972,0.9799718,3.415606
43.75248,96.77527,-0.01837601,0.9799718,3.422065
43.80192,96.39381,-0.06780571,0.9799718,3.415606
43.85237,96.13953,-0.1263413,0.9799718,3.415606
43.90312,91.43503,-0.201787,0.9799718,3.409146
43.95198,88.63776,-0.2291033,0.9799718,3.415606
44.00248,85.96764,-0.2707287,0.9798071,3.415606
44.05239,84.44184,-0.3357679,0.9799718,3.415606
44.10125,83.29751,-0.4008075,0.9798071,3.415606
44.15238,80.88168,-0.4658466,0.9798071,3.415606
44.20136,78.46587,-0.4892607,0.9799718,3.415606
44.25298,90.54498,-1.009576,0.9798071,3.409146
44.30148,110.6345,-1.529891,0.9798071,3.415606
44.35202,107.9643,-1.509078,0.9798071,3.415606
44.40236,107.5829,-1.519484,0.9799718,3.409146
44.45136,105.8028,-1.516883,0.9799718,3.409146
44.50249,104.1499,-1.515582,0.9799718,3.415606
44.55212,98.80965,-1.515582,0.9798071,3.415606
44.60211,98.04675,-1.518183,0.9798071,3.409146
44.65297,96.64812,-1.510379,0.9799718,3.409146
44.70214,94.10515,-1.507777,0.9799718,3.409146
44.75286,90.29069,-1.501273,0.9798071,3.409146
44.8021,89.0192,-1.498672,0.9798071,3.409146
44.85189,86.47623,-1.493468,0.9799718,3.409146
44.90288,85.20473,-1.49607,0.9798071,3.402687
44.95159,84.0604,-1.506476,0.9799718,3.402687
45.00299,80.88168,-1.515582,0.9799718,3.409146
45.05164,80.11879,-1.494769,0.9799718,3.409146
45.10221,106.3114,-1.503875,0.9799718,3.402687
45.15311,110.253,-1.501273,0.9798071,3.402687
45.20224,106.9472,-1.503875,0.9798071,3.402687
45.25298,106.3114,-1.493468,0.9798071,3.402687
45.30161,107.5829,-1.476558,0.9798071,3.402687
45.35164,104.277,-1.432331,0.9799718,3.402687
45.40276,99.44539,-1.390706,0.9798071,3.402687
45.45227,99.57254,-1.33087,0.9798071,3.402687
45.50239,97.02956,-1.241116,0.9798071,3.402687
45.5521,92.96081,-1.086322,0.9798071,3.402687
45.6021,91.05358,-0.8899035,0.9799718,3.402687
45.65266,88.00201,-0.5751131,0.9798071,3.402687
45.70235,85.96764,-0.3708893,0.9799718,3.402687
45.75323,84.0604,-0.1627635,0.9798071,3.402687
45.80202,83.55181,0.2716996,0.9798071,3.402687
45.85137,79.61021,0.4056804,0.9799718,3.396228
45.90262,78.97446,0.5318571,0.9798071,3.402687
45.95164,88.63776,0.5825875,0.9798071,3.396228
46.00234,110.253,0.6020995,0.9798071,3.396228
46.05236,107.5829,0.615107,0.9799718,3.396228
46.10135,106.0571,0.6242129,0.9798071,3.396228
46.15347,105.5485,0.5968962,0.9798071,3.396228
46.20161,101.4798,0.5344585,0.9798071,3.396228
46.25298,98.42819,0.4902316,0.9798071,3.396228
46.30235,98.04675,0.4525087,0.9798071,3.396228
46.35187,96.52097,0.4186884,0.9798071,3.402687
46.40236,95.37663,0.3783642,0.9798071,3.396228
46.45147,90.29069,0.3172272,0.9798071,3.389769
46.50336,88.38345,0.226172,0.9798071,3.396228
46.55145,85.58618,0.1663357,0.9799718,3.396228
46.60209,84.44184,0.1208081,0.9798071,3.389769
46.65237,81.26313,0.103898,0.9799718,3.389769
46.70147,85.33189,0.07788197,0.9798071,3.389769
46.75273,108.3458,0.04146029,0.9798071,3.389769
46.80203,105.4214,0.02455016,0.9799718,3.389769
46.85146,104.4042,0.01804615,0.9799718,3.389769
46.90324,104.9128,-0.03008332,0.9799718,3.389769
46.95184,103.387,-0.06390359,0.9799718,3.389769
47.0035,97.66531,-0.09382174,0.9798071,3.389769
47.05139,97.53816,-0.127642,0.9799718,3.389769
47.10196,97.79247,-0.1367474,0.9799718,3.389769
47.15308,92.57936,-0.1484547,0.9798071,3.389769
47.20197,90.29069,-0.1562594,0.9796425,3.389769
47.25272,86.73053,-0.160162,0.9798071,3.38331
47.30148,85.84048,-0.1770722,0.9799718,3.389769
47.35246,84.3147,-0.1926816,0.9798071,3.389769
47.40358,83.17036,-0.2069903,0.9798071,3.389769
47.45195,78.97446,-0.201787,0.9798071,3.38331
47.50286,89.78209,-0.2186972,0.9798071,3.38331
47.55147,109.2358,-0.2212986,0.9798071,3.38331
47.60212,107.4557,-0.2265019,0.9799718,3.389769
47.65247,105.1671,-0.2291033,0.9798071,3.38331
47.70234,105.2942,-0.249916,0.9798071,3.38331
47.75296,105.4214,-0.2967443,0.9799718,3.38331
47.80246,97.41101,-0.3370691,0.9798071,3.38331
47.85157,97.15671,-0.3669867,0.9798071,3.38331
47.90357,96.52097,-0.4047096,0.9799718,3.38331
47.95209,93.34225,-0.4281237,0.9799718,3.376851
48.003,89.90925,-0.4697492,0.9798071,3.38331
48.05184,87.11198,-0.5126749,0.9798071,3.38331
48.10148,85.20473,-0.5334876,0.9798071,3.38331
48.15262,83.67896,-0.5881206,0.9798071,3.38331
48.20199,82.28033,-0.6765743,0.9798071,3.376851
48.25259,78.59301,-0.7221019,0.9798071,3.376851
48.30185,80.24594,-1.155264,0.9798071,3.38331
48.35173,107.9643,-1.754927,0.9799718,3.38331
48.40307,106.82,-1.683383,0.9798071,3.376851
48.45159,104.7856,-1.684684,0.9798071,3.376851
48.50324,105.4214,-1.675579,0.9799718,3.376851
48.55195,105.6757,-1.675579,0.9798071,3.376851
48.60145,98.6825,-1.671676,0.9798071,3.376851
48.65334,98.04675,-1.674278,0.9798071,3.376851
48.70162,97.53816,-1.671676,0.9798071,3.376851
48.75273,93.59654,-1.671676,0.9799718,3.376851
48.80233,91.05358,-1.669075,0.9799718,3.376851
48.85246,88.63776,-1.670375,0.9798071,3.376851
48.9027,85.58618,-1.669075,0.9798071,3.370391
48.95187,84.569,-1.669075,0.9799718,3.370391
49.00308,82.53461,-1.671676,0.9799718,3.370391
49.05175,79.3559,-1.674278,0.9799718,3.370391
49.10199,77.95727,-1.665172,0.9799718,3.370391
49.15258,97.28386,-1.666473,0.9798071,3.370391
49.20233,105.6757,-1.663872,0.9798071,3.370391
49.25315,104.1499,-1.662571,0.9799718,3.370391
49.30207,104.0227,-1.662571,0.9799718,3.370391
49.35157,104.9128,-1.659969,0.9798071,3.370391
49.40258,102.3698,-1.657368,0.9798071,3.370391
49.45199,97.53816,-1.653465,0.9798071,3.370391
49.50256,96.90242,-1.623547,0.9798071,3.370391
49.55175,96.13953,-1.568914,0.9799718,3.370391
49.60159,92.07076,-1.481761,0.9798071,3.363932
49.65185,88.63776,-1.377698,0.9798071,3.363932
49.70269,86.47623,-1.304854,0.9798071,3.370391
49.75223,84.44184,-1.209897,0.9799718,3.363932
49.80221,82.40748,-1.039494,0.9798071,3.370391
49.85235,81.26313,-0.8521807,0.9799718,3.370391
49.90259,78.59301,-0.5686091,0.9798071,3.363932
49.95309,76.68578,-0.01447389,0.9799718,3.370391
50.00212,94.74089,0.32243,0.9798071,3.363932
50.05262,108.8544,0.4876302,0.9799718,3.370391
50.10219,104.4042,0.6034002,0.9798071,3.363932
50.15162,103.387,0.7126662,0.9798071,3.363932
50.20341,104.5313,0.7894126,0.9798071,3.363932
50.25223,101.7341,0.8323388,0.9799718,3.363932
50.3017,97.28386,0.8843704,0.9799718,3.363932
50.35209,96.90242,0.9090852,0.9799718,3.363932
50.40158,96.90242,0.9324993,0.9798071,3.363932
50.45345,92.96081,0.9533121,0.9798071,3.363932
50.50198,91.05358,0.9442062,0.9799718,3.357473
50.55173,88.25631,0.9194914,0.9799718,3.363932
50.60212,87.11198,0.8882725,0.9799718,3.363932
50.65158,84.569,0.8349402,0.9798071,3.363932
50.7027,81.39028,0.7959166,0.9798071,3.363932
50.75273,81.64457,0.7607952,0.9799718,3.363932
50.80233,106.4386,0.7269749,0.9798071,3.363932
50.85199,105.0399,0.6632365,0.9798071,3.357473
50.9016,103.5141,0.6203103,0.9798071,3.357473
50.95311,103.1327,0.5513686,0.9798071,3.357473
51.00259,102.1155,0.4837276,0.9798071,3.357473
51.05231,96.90242,0.4395012,0.9798071,3.357473
51.10269,96.01237,0.3809656,0.9799718,3.357473
51.1522,96.13953,0.2964144,0.9799718,3.363932
51.20333,92.57936,0.2053593,0.9798071,3.357473
51.25182,89.5278,0.1442223,0.9798071,3.357473
51.30255,86.34908,0.09999541,0.9799718,3.357473
51.35232,85.58618,0.06357373,0.9799718,3.357473
51.40219,84.44184,0.01544426,0.9798071,3.351014
51.4537,81.00883,-0.02488002,0.9799718,3.357473
51.5021,79.10161,-0.06000099,0.9798071,3.357473
51.55208,83.29751,-0.1081305,0.9798071,3.357473
51.60169,105.6757,-0.1510562,0.9798071,3.351014
51.6527,104.5313,-0.182275,0.9798071,3.351014
51.70348,103.7684,-0.1926816,0.9799718,3.351014
51.75172,104.5313,-0.2225998,0.9798071,3.351014
51.80207,102.6241,-0.2512167,0.9798071,3.351014
51.85235,97.41101,-0.2850375,0.9799718,3.351014
51.9023,97.02956,-0.3396705,0.9799718,3.351014
51.95331,95.37663,-0.3682879,0.9799718,3.351014
52.00233,92.19792,-0.3825962,0.9799718,3.351014
52.05256,89.2735,-0.3917021,0.9798071,3.351014
52.10159,86.85767,-0.4086122,0.9799718,3.351014
52.15156,84.95044,-0.4255223,0.9798071,3.344555
52.20303,84.0604,-0.4580419,0.9798071,3.351014
52.25259,82.02603,-0.5386909,0.9799718,3.351014
52.30267,78.97446,-0.7858403,0.9798071,3.351014
52.35223,79.3559,-1.401113,0.9798071,3.351014
52.40271,83.04321,-1.503875,0.9798071,3.344555
52.45369,106.1843,-1.507777,0.9798071,3.344555
52.50193,104.9128,-1.507777,0.9798071,3.344555
52.55168,104.9128,-1.501273,0.9798071,3.344555
52.60233,104.9128,-1.497371,0.9796425,3.344555
52.65282,100.3354,-1.498672,0.9799718,3.344555
52.70371,98.04675,-1.497371,0.9799718,3.351014
52.75169,97.66531,-1.49607,0.9798071,3.344555
52.80231,95.24948,-1.492168,0.9798071,3.344555
52.85196,91.81647,-1.492168,0.9798071,3.344555
52.90231,89.90925,-1.489566,0.9798071,3.344555
52.95293,86.60338,-1.490867,0.9798071,3.344555
53.00259,84.44184,-1.490867,0.9798071,3.344555
53.05235,83.29751,-1.490867,0.9798071,3.344555
53.10231,81.39028,-1.457047,0.9798071,3.344555
53.15229,78.21156,-1.421925,0.9798071,3.344555
53.20311,75.79574,-1.345179,0.9799718,3.338095
53.25256,96.90242,-1.280139,0.9798071,3.338095
53.30194,106.4386,-1.169573,0.9798071,3.338095
53.35213,104.5313,-1.008275,0.9798071,3.338095
53.40207,103.6413,-0.8118559,0.9798071,3.338095
53.45357,104.5313,-0.5139761,0.9798071,3.344555
53.50235,102.6241,-0.3071509,0.9798071,3.338095
53.55193,98.04675,-0.1380486,0.9798071,3.338095
53.60281,97.66531,0.3250319,0.9798071,3.338095
53.65183,96.52097,0.4668174,0.9798071,3.338095
53.70297,92.7065,0.5955955,0.9798071,3.338095
53.75233,90.29069,0.6957561,0.9798071,3.338095
53.80205,86.98483,0.7555923,0.9798071,3.338095
53.85234,86.47623,0.7868112,0.9799718,3.338095
53.9025,85.20473,0.8206315,0.9799718,3.338095
53.95341,82.53461,0.8128268,0.9798071,3.338095
54.00167,80.24594,0.8063228,0.9798071,3.331636
54.05246,83.29751,0.7646978,0.9799718,3.338095
54.1027,100.9712,0.7295763,0.9798071,3.331636
54.15212,105.6757,0.6333184,0.9798071,3.338095
54.20304,103.6413,0.560474,0.9798071,3.331636
54.25186,103.0055,0.5032396,0.9799718,3.331636
54.3018,102.3698,0.4460047,0.9798071,3.331636
54.35256,96.13953,0.403079,0.9799718,3.331636
54.40194,95.63092,0.341942,0.9798071,3.331636
54.4533,95.75809,0.287309,0.9798071,3.331636
54.50269,92.45221,0.2339767,0.9799718,3.331636
54.55256,89.14634,0.2079607,0.9798071,3.331636
54.60192,86.73053,0.1598317,0.9798071,3.331636
54.65281,85.33189,0.1273122,0.9799718,3.331636
54.70317,83.80611,0.110402,0.9799718,3.331636
54.75184,81.39028,0.0921907,0.9798071,3.331636
54.80204,78.59301,0.07788197,0.9798071,3.331636
54.85207,85.71333,0.03365558,0.9798071,3.325177
54.90294,106.0571,-0.00276658,0.9799718,3.325177
54.95318,104.1499,-0.02227861,0.9799718,3.325177
55.00243,103.0055,-0.04699345,0.9799718,3.325177
55.05192,103.387,-0.08731773,0.9798071,3.331636
55.10205,101.9884,-0.1263413,0.9798071,3.325177
55.15218,96.52097,-0.1549587,0.9799718,3.325177
55.20321,95.24948,-0.1783729,0.9798071,3.325177
55.25291,94.35944,-0.1835762,0.9798071,3.325177
55.30255,91.05358,-0.1965837,0.9798071,3.325177
55.35255,89.14634,-0.208291,0.9798071,3.325177
55.40194,86.60338,-0.2225998,0.9798071,3.325177
55.45393,84.18755,-0.2382092,0.9799718,3.325177
55.50206,82.53461,-0.2460139,0.9798071,3.325177
55.55282,80.50024,-0.249916,0.9798071,3.325177
55.60193,78.21156,-0.262924,0.9796425,3.325177
55.65209,75.79574,-0.2395099,0.9898543,3.318718
55.70334,91.30788,-0.25642,0.9900191,3.325177
55.7522,105.93,-0.2785335,0.9898543,3.325177
55.80229,104.0227,-0.311053,0.9898543,3.318718
55.85218,103.0055,-0.3552799,0.9896896,3.318718
55.90254,103.387,-0.4489365,0.9896896,3.325177
55.95311,101.7341,-0.6024293,0.9898543,3.318718
56.00206,96.90242,-0.8027505,0.9898543,3.318718
56.05194,95.37663,-0.8547821,0.9898543,3.318718
56.10242,94.86804,-0.8495788,0.9898543,3.318718
56.15293,91.81647,-0.8664894,0.9896896,3.318718
56.2031,88.25631,-0.8886024,0.9898543,3.318718
56.25206,85.96764,-0.9107158,0.9900191,3.318718
56.3023,83.67896,-0.9263252,0.9898543,3.318718
56.35207,81.00883,-0.9133177,0.9898543,3.312259
56.40228,80.50024,-0.9029111,0.9896896,3.312259
56.4533,77.95727,-0.9120165,0.9898543,3.318718
56.5027,74.65141,-0.9107158,0.9896896,3.312259
56.5526,81.39028,-0.9120165,0.9898543,3.318718
56.60214,105.8028,-0.93413,0.9898543,3.312259
56.65277,105.5485,-0.93413,0.9896896,3.312259
56.70393,103.2598,-0.9770561,0.9900191,3.312259
56.75272,103.387,-1.004372,0.9898543,3.312259
56.80239,103.387,-1.043396,0.9898543,3.318718
56.85192,97.66531,-1.059006,0.9898543,3.312259
56.90208,96.13953,-1.068111,0.9898543,3.312259
56.95281,94.86804,-1.068111,0.9898543,3.312259
57.00231,93.46941,-1.068111,0.9898543,3.312259
57.05279,89.78209,-1.074615,0.9898543,3.312259
57.10267,86.34908,-1.078517,0.9900191,3.312259
57.15229,84.3147,-1.091525,0.9898543,3.312259
57.20321,82.78893,-1.091525,0.9898543,3.312259
57.25254,81.00883,-1.098029,0.9898543,3.3058
57.3027,79.3559,-1.09933,0.9896896,3.312259
57.35191,76.43149,-1.095428,0.9898543,3.312259
57.40215,75.54144,-1.060307,0.9898543,3.312259
57.4531,74.65141,-0.9731535,0.9898543,3.312259
57.50194,106.6929,-0.844376,0.9898543,3.312259
57.5521,103.6413,-0.6336482,0.9898543,3.3058
57.60248,102.8784,-0.4476358,0.9896896,3.3058
57.6519,103.0055,-0.3396705,0.9898543,3.312259
57.70359,98.6825,-0.208291,0.9900191,3.3058
57.75181,96.01237,-0.1198373,0.9898543,3.3058
57.8023,95.12233,-0.02227861,0.9898543,3.3058
57.85204,92.32506,0.06097184,0.9898543,3.3058
57.90259,89.14634,0.1429216,0.9898543,3.3058
57.95379,86.34908,0.2951137,0.9898543,3.3058
58.00245,83.67896,0.5682787,0.9898543,3.29934
58.05206,82.15317,0.7347796,0.9898543,3.3058
58.10304,80.24594,0.7816079,0.9898543,3.3058
58.15255,78.59301,0.8219322,0.9898543,3.3058
58.20391,75.41429,0.8349402,0.9898543,3.3058
58.25205,74.14281,0.8518503,0.9898543,3.3058
58.3024,93.59654,0.8362409,0.9896896,3.3058
58.35279,105.6757,0.8206315,0.9898543,3.29934
58.40204,103.0055,0.7751039,0.9896896,3.29934
58.45367,101.0983,0.7087641,0.9898543,3.29934
58.50189,101.4798,0.621611,0.9896896,3.29934
58.55192,96.01237,0.579986,0.9896896,3.29934
58.60229,94.2323,0.4785248,0.9898543,3.29934
58.65281,94.48659,0.3458441,0.9898543,3.29934
58.70357,91.56216,0.1884492,0.9898543,3.29934
58.75225,87.87486,0.1064994,0.9896896,3.29934
58.80243,85.58618,0.07397985,0.9896896,3.29934
58.85239,83.67896,0.002436722,0.9896896,3.29934
58.90253,82.15317,-0.04048945,0.9898543,3.29934
58.95352,80.62739,-0.1094312,0.9896896,3.29934
59.00226,76.55863,-0.1380486,0.9896896,3.29934
59.05279,78.21156,-0.1575602,0.9898543,3.29934
59.10303,100.9712,-0.1705682,0.9900191,3.29934
59.15241,104.5313,-0.1796736,0.9896896,3.29934
59.20353,103.2598,-0.1874783,0.9898543,3.29934
59.25203,102.6241,-0.195283,0.9898543,3.292881
59.30259,101.8612,-0.2108925,0.9898543,3.292881
59.35253,94.99519,-0.2369085,0.9898543,3.292881
59.40303,94.48659,-0.2603226,0.9900191,3.29934
59.45409,94.2323,-0.2655255,0.9898543,3.292881
59.50296,90.29069,-0.275932,0.9898543,3.292881
59.55204,87.11198,-0.2915415,0.9898543,3.292881
59.60201,84.44184,-0.3162563,0.9898543,3.292881
59.65277,82.53461,-0.3305651,0.9896896,3.292881
59.70289,80.88168,-0.3500766,0.9898543,3.292881
59.75251,79.22876,-0.3669867,0.9896896,3.292881
59.80215,77.32152,-0.4242216,0.9898543,3.292881
59.85253,75.03284,-0.4372296,0.9898543,3.292881
59.90215,78.21156,-0.4723506,0.9896896,3.292881
59.95404,106.82,-0.6258435,0.9900191,3.292881
60.00232,105.1671,-1.163069,0.9896896,3.292881
60.05287,104.0227,-1.315261,0.9898543,3.292881
60.10305,104.9128,-1.295749,0.9898543,3.292881
60.15255,102.2427,-1.311358,0.9898543,3.286422
60.20338,97.66531,-1.946142,0.9896896,3.292881
60.25227,96.77527,-1.92663,0.9898543,3.29934
60.30252,95.24948,-2.00858,0.9898543,3.292881
60.35254,91.05358,-2.100936,0.9898543,3.286422
60.40305,89.14634,-2.795556,0.9896896,3.286422
60.45303,85.33189,-4.55422,0.9898543,3.286422
60.50214,83.29751,-3.188394,0.9896896,3.286422
60.55302,83.04321,-3.047909,0.9896896,3.286422
60.60303,79.86449,-2.981569,0.9865602,3.286422
60.65303,77.83012,-2.647267,0.9798071,3.286422
60.70305,75.03284,-2.42223,0.9799718,3.286422
60.75303,73.88851,-2.09053,0.9796425,3.286422
60.80215,104.7856,-1.934435,0.9799718,3.286422
60.85279,107.3286,-1.52859,0.9798071,3.286422
60.90302,104.5313,-1.126647,0.9799718,3.286422
60.95345,103.0055,-0.7572229,0.9798071,3.286422
61.00276,104.0227,-0.2056891,0.9798071,3.286422
61.05253,98.04675,0.003737428,0.9798071,3.286422
61.10208,96.13953,0.08178457,0.9799718,3.286422
61.1523,95.63092,0.1806444,0.9798071,3.286422
61.20337,91.81647,0.287309,0.9796425,3.279963
61.25292,89.40065,0.4186884,0.9798071,3.279963
61.30264,87.11198,0.5227512,0.9798071,3.279963
61.35208,84.95044,0.5786853,0.9799718,3.279963
61.40263,84.3147,0.592994,0.9798071,3.279963
61.4534,80.62739,0.5955955,0.9798071,3.279963
61.50301,78.21156,0.621611,0.9799718,3.279963
61.55253,81.77173,0.6671386,0.9798071,3.279963
61.60305,93.72369,0.6060016,0.9798071,3.279963
61.6523,105.6757,0.5851893,0.9798071,3.279963
61.70308,103.1327,0.579986,0.9798071,3.279963
61.75304,101.4798,0.5708807,0.9799718,3.279963
61.80288,101.0983,0.5396618,0.9798071,3.273504
61.85302,96.90242,0.4473059,0.9798071,3.273504
61.90237,93.46941,0.4160871,0.9798071,3.279963
61.95302,93.34225,0.3237312,0.9799718,3.273504
62.00227,89.40065,0.2847071,0.9798071,3.279963
62.05252,86.34908,0.2456836,0.9798071,3.273504
62.10242,84.569,0.232676,0.9798071,3.273504
62.15227,82.91606,0.2300741,0.9798071,3.273504
62.20327,80.88168,0.2157654,0.9796425,3.273504
62.25264,78.72016,0.1910506,0.9798071,3.273504
62.30228,77.06723,0.1728397,0.9798071,3.273504
62.35348,81.39028,0.08958928,0.9798071,3.273504
62.40349,93.85085,0.006338839,0.9798071,3.273504
62.45303,103.7684,-0.04959486,0.9798071,3.273504
62.50304,102.497,-0.1068298,0.9798071,3.273504
62.55205,102.1155,-0.1354467,0.9798071,3.273504
62.60292,100.9712,-0.2147951,0.9798071,3.267045
62.65338,94.99519,-0.2421113,0.9798071,3.273504
62.70325,94.61374,-0.2343066,0.9799718,3.267045
62.7523,93.85085,-0.1991856,0.9798071,3.267045
62.80327,89.5278,-0.25642,0.9798071,3.273504
62.85265,87.23911,-0.6245428,0.9798071,3.273504
62.90388,84.44184,-0.8990089,0.9799718,3.267045
62.95425,82.53461,-0.9315285,0.9798071,3.273504
63.00228,80.50024,-0.9744547,0.9798071,3.267045
63.05251,79.3559,-1.014779,0.9798071,3.267045
63.10326,77.83012,-1.044697,0.9798071,3.273504
63.15428,75.41429,-1.0499,0.9798071,3.273504
63.20351,80.62739,-1.08242,0.9799718,3.267045
63.25288,102.6241,-1.103233,0.9799718,3.267045
63.3028,103.6413,-1.096728,0.9798071,3.267045
63.35302,103.387,-1.098029,0.9798071,3.267045
63.40388,104.1499,-1.091525,0.9798071,3.267045
63.45325,102.7513,-1.073314,0.9798071,3.267045
63.50286,96.90242,-1.038193,0.9799718,3.267045
63.55313,96.39381,-0.9848608,0.9798071,3.267045
63.60276,94.86804,-0.6700704,0.9798071,3.267045
63.65349,91.05358,0.1351169,0.9798071,3.267045
63.70387,89.14634,0.35495,0.9799718,3.267045
63.75227,86.73053,0.5149465,0.9798071,3.267045
63.80244,84.44184,0.7790065,0.9798071,3.267045
63.85276,82.53461,0.9220927,0.9798071,3.267045
63.90419,80.50024,1.044367,0.9801366,3.267045
63.95351,78.72016,1.105504,0.9798071,3.267045
64.00214,77.06723,1.145828,0.9798071,3.267045
64.05227,74.52426,1.161438,0.9796425,3.267045
64.10216,79.3559,1.13152,0.9799718,3.267045
64.1541,101.0983,1.072984,0.9798071,3.267045
64.20317,109.8716,1.004043,0.9798071,3.267045
64.25325,105.2942,0.9884331,0.9796425,3.267045
64.30312,104.5313,0.9324993,0.9798071,3.267045
64.35288,104.5313,0.8544523,0.9798071,3.273504
64.40366,104.0227,0.7529905,0.9798071,3.267045
64.45381,99.69969,0.6723419,0.9798071,3.267045
64.50281,99.44539,0.6125056,0.9799718,3.273504
64.55238,94.99519,0.5786853,0.9799718,3.267045
64.603,89.90925,0.5227512,0.9798071,3.267045
64.65414,87.23911,0.4434033,0.9798071,3.273504
64.70341,85.33189,0.3978757,0.9798071,3.273504
64.75237,83.29751,0.3575515,0.9799718,3.273504
64.80288,81.26313,0.3211293,0.9796425,3.267045
64.85249,78.72016,0.2573909,0.9798071,3.273504
64.90394,80.75454,0.2482855,0.9798071,3.273504
64.9535,104.6585,0.2287734,0.9798071,3.273504
65.00341,106.3114,0.1923513,0.9796425,3.273504
65.05226,103.387,0.1260114,0.9798071,3.267045
65.10327,103.1327,0.01154214,0.9798071,3.273504
65.15387,103.5141,-0.05349746,0.9798071,3.273504
65.20414,96.90242,-0.1549587,0.9798071,3.273504
65.25249,95.75809,-0.1718689,0.9798071,3.273504
65.30289,95.75809,-0.1809743,0.9798071,3.273504
65.35311,93.46941,-0.2824356,0.9798071,3.273504
65.40376,90.67213,-0.3565806,0.9798071,3.273504
65.45423,86.34908,-0.2265019,0.9798071,3.273504
65.50298,83.42466,0.1559296,0.9798071,3.279963
65.55253,81.39028,0.4629153,0.9796425,3.273504
65.60223,80.11879,0.5968962,0.9796425,3.279963
65.65347,78.33871,0.6710412,0.9798071,3.279963
65.70409,75.66859,0.6125056,0.9798071,3.279963
65.75286,79.86449,0.6619358,0.9796425,3.273504
65.80325,106.3114,0.6372204,0.9798071,3.273504
65.85309,108.3458,0.6320176,0.9798071,3.273504
65.90361,105.6757,0.6593339,0.9799718,3.279963
65.95449,104.5313,0.6593339,0.9798071,3.279963
66.0026,104.9128,0.6749433,0.9798071,3.273504
66.05301,101.0983,0.7217716,0.9799718,3.279963
66.10293,97.41101,0.6788459,0.9799718,3.279963
66.15324,96.90242,0.6346191,0.9799718,3.279963
66.20422,92.07076,0.6372204,0.9798071,3.279963
66.25227,89.40065,0.7087641,0.9798071,3.273504
66.30288,86.47623,0.7425843,0.9799718,3.279963
66.35307,84.0604,0.8128268,0.9799718,3.279963
66.40349,83.29751,0.8401435,0.9798071,3.273504
66.45348,79.48306,0.859655,0.9799718,3.279963
66.50313,78.21156,0.8739638,0.9799718,3.279963
66.55236,75.41429,0.8648583,0.9798071,3.279963
66.60291,73.76136,0.8674598,0.9796425,3.279963
66.65387,97.02956,0.8557529,0.9799718,3.279963
66.70348,108.3458,0.8492489,0.9798071,3.279963
66.75285,104.6585,0.8453463,0.9798071,3.279963
66.80325,103.7684,0.8986786,0.9796425,3.273504
66.85326,104.277,0.9494095,0.9798071,3.279963
66.90405,102.6241,0.8908739,0.9798071,3.279963
66.954,95.37663,0.8973779,0.9798071,3.279963
67.00249,94.48659,0.9194914,0.9798071,3.279963
67.05222,93.72369,0.9311987,0.9798071,3.279963
67.10298,89.90925,0.9311987,0.9798071,3.279963
67.15362,86.85767,0.9051826,0.9796425,3.279963
67.20325,84.0604,1.059976,0.9798071,3.279963
67.25323,82.53461,1.110707,0.9798071,3.279963
67.30301,80.62739,1.158836,0.9799718,3.279963
67.35301,78.84731,1.18095,0.9798071,3.279963
67.40347,78.97446,1.157535,0.9798071,3.279963
67.45341,88.7649,1.121113,0.9798071,3.286422
67.50336,108.8544,1.100301,0.9798071,3.279963
67.55247,105.8028,1.097699,0.9798071,3.279963
67.60323,103.6413,1.097699,0.9799718,3.279963
67.65334,103.8956,1.074285,0.9798071,3.279963
67.70434,101.6069,1.019652,0.9798071,3.286422
67.75262,95.63092,1.004043,0.9798071,3.279963
67.80273,95.24948,0.9181907,0.9798071,3.286422
67.85229,94.48659,0.5994976,0.9798071,3.279963
67.90448,88.7649,0.6020995,0.9798071,3.286422
67.95423,87.62056,0.5071417,0.9798071,3.286422
68.00302,85.45904,0.2638949,0.9798071,3.286422
68.05299,83.42466,0.1767418,0.9798071,3.286422
68.1026,82.02603,0.0921907,0.9798071,3.286422
68.15347,79.73734,0.08308528,0.9798071,3.286422
68.20375,78.46587,0.2014572,0.9798071,3.286422
68.25262,101.7341,0.5409625,0.9796425,3.286422
68.30323,109.8716,0.7959166,0.9799718,3.286422
68.35322,105.93,1.054773,0.9799718,3.286422
68.40363,105.1671,1.265501,0.9798071,3.286422
68.45354,104.5313,1.415091,0.9798071,3.292881
68.50349,98.6825,1.517853,0.9799718,3.292881
68.55299,96.52097,1.658338,0.9798071,3.292881
68.60297,96.13953,1.804026,0.9798071,3.292881
68.65425,93.59654,1.90939,0.9798071,3.292881
68.7034,89.90925,1.999145,0.9799718,3.292881
68.75286,86.73053,2.0902,0.9798071,3.292881
68.80296,85.33189,2.130524,0.9799718,3.292881
68.85271,82.53461,2.153938,0.9799718,3.292881
68.90436,81.51743,2.146134,0.9798071,3.292881
68.95426,78.33871,2.125321,0.9798071,3.292881
69.00282,76.94007,2.104508,0.9798071,3.292881
69.05322,86.09478,2.068086,0.9798071,3.292881
69.10323,107.5829,2.044672,0.9799718,3.292881
69.15421,104.5313,2.005649,0.9799718,3.29934
69.20347,103.6413,1.962723,0.9799718,3.292881
69.25235,103.0055,1.895082,0.9798071,3.292881
69.30259,97.28386,1.844351,0.9798071,3.292881
69.35239,94.10515,1.779312,0.9798071,3.292881
69.40445,93.59654,1.740288,0.9798071,3.292881
69.45421,90.03638,1.685655,0.9796425,3.29934
69.50287,87.11198,1.576389,0.9799718,3.29934
69.55234,85.33189,1.425498,0.9798071,3.292881
69.60282,82.91606,1.309728,0.9798071,3.29934
69.65396,81.64457,1.126317,0.9798071,3.29934
69.70408,78.84731,0.9259953,0.9798071,3.29934
69.75298,77.06723,0.7881119,0.9799718,3.29934
69.8032,82.40748,0.6632365,0.9798071,3.292881
69.8532,104.7856,0.5708807,0.9798071,3.29934
69.90385,102.8784,0.5409625,0.9798071,3.29934
69.95435,103.2598,0.5409625,0.9798071,3.29934
70.00323,103.0055,0.5084429,0.9798071,3.29934
70.05297,98.9368,0.4980363,0.9798071,3.29934
70.1025,95.37663,0.4889309,0.9798071,3.29934
70.15359,95.12233,0.4824269,0.9798071,3.29934
70.20413,93.08795,0.4954349,0.9798071,3.29934
70.25237,88.7649,0.5032396,0.9798071,3.29934
70.30322,86.47623,0.5084429,0.9799718,3.29934
70.35322,83.42466,0.5110443,0.9799718,3.29934
70.40404,82.02603,0.5201498,0.9799718,3.29934
70.45435,80.11879,0.5214505,0.9798071,3.3058
70.50238,78.21156,0.5162476,0.9798071,3.3058
70.55347,76.30434,0.5370599,0.9798071,3.3058
70.60262,85.07759,0.5344585,0.9798071,3.3058
70.65345,110.253,0.5201498,0.9798071,3.3058
70.70444,106.4386,0.5071417,0.9799718,3.3058
70.75323,105.2942,0.5110443,0.9798071,3.3058
70.80321,105.8028,0.5110443,0.9798071,3.3058
70.85297,104.0227,0.5006382,0.9799718,3.312259
70.90421,96.90242,0.4889309,0.9798071,3.312259
70.9545,96.52097,0.4954349,0.9798071,3.312259
71.00244,94.99519,0.5110443,0.9798071,3.312259
71.05359,90.41783,0.5266538,0.9801366,3.312259
71.10258,87.87486,0.5578726,0.9798071,3.312259
71.15382,85.45904,0.579986,0.9798071,3.312259
71.20408,83.29751,0.5994976,0.9798071,3.318718
71.25334,81.26313,0.6268143,0.9798071,3.318718
71.30299,80.50024,0.6632365,0.9898543,3.318718
71.35334,78.33871,0.6853499,0.9896896,3.318718
71.40448,76.30434,0.6957561,0.9896896,3.318718
71.45408,88.25631,0.6970568,0.9898543,3.325177
71.50257,109.2358,0.689252,0.9898543,3.325177
71.55346,108.3458,0.6879513,0.9896896,3.325177
71.60271,105.2942,0.7035608,0.9896896,3.325177
71.65395,105.93,0.737381,0.9898543,3.325177
71.70385,104.6585,0.7685999,0.9898543,3.331636
71.75259,98.04675,0.8609558,0.9896896,3.331636
71.80258,96.52097,1.109406,0.9896896,3.331636
71.85323,96.01237,1.408587,0.9898543,3.331636
71.90347,92.57936,1.697362,0.9900191,3.331636
71.95387,89.0192,1.953617,0.9798071,3.331636
72.00308,87.11198,2.233286,0.9796425,3.331636
72.05271,84.0604,2.515557,0.9799718,3.338095
72.10345,82.53461,2.722382,0.9799718,3.325177
72.15446,79.73734,2.93311,0.9799718,3.318718
72.2039,78.59301,3.102212,0.9799718,3.331636
72.25347,77.44867,3.14904,0.9798071,3.357473
72.3026,80.75454,3.173755,0.9799718,3.351014
72.35271,106.0571,3.18156,0.9798071,3.351014
72.40395,105.0399,3.172455,0.9798071,3.325177
72.45406,100.2083,3.150341,0.9798071,3.29934
72.50321,97.9196,3.081399,0.9798071,3.292881
72.55339,94.99519,2.849859,0.9799718,3.279963
72.60323,92.7065,2.574093,0.9798071,3.29934
72.65395,91.94361,2.362064,0.9798071,3.325177
72.70388,91.81647,2.298326,0.9799718,3.331636
72.75348,81.77173,2.212474,0.9796425,3.331636
72.80262,78.72016,2.191661,0.9798071,3.338095
72.85357,80.62739,2.129224,0.9798071,3.351014
72.90363,78.08442,1.983535,0.9799718,3.344555
72.95396,77.44867,1.883375,0.9798071,3.344555
73.00373,76.55863,1.751995,0.9798071,3.331636
73.0536,82.53461,1.644029,0.9798071,3.338095
73.10307,105.93,1.459318,0.9799718,3.338095
73.15451,103.6413,1.316231,0.9798071,3.338095
73.20444,102.1155,1.206966,0.9798071,3.338095
73.25296,101.3526,1.164039,0.9799718,3.331636
73.30345,98.6825,1.154934,0.9799718,3.338095
73.35324,91.43503,1.13152,0.9798071,3.338095
73.40386,91.05358,1.101602,0.9798071,3.344555
73.45418,91.05358,1.069082,0.9798071,3.344555
73.50282,87.49342,1.056074,0.9799718,3.344555
73.55295,83.55181,1.056074,0.9798071,3.344555
73.60369,81.64457,1.018351,0.9798071,3.338095
73.65357,79.48306,0.9468081,0.9798071,3.338095
73.70422,78.59301,0.9351008,0.9798071,3.331636
73.7527,75.41429,0.9051826,0.9798071,3.325177
73.80343,74.77856,0.9298975,0.9798071,3.292881
73.85345,79.48306,0.9129874,0.9798071,3.325177
73.90393,100.5897,0.9324993,0.9798071,3.331636
73.95369,104.277,1.036562,0.9798071,3.325177
74.00319,104.0227,1.13282,0.9798071,3.325177
74.05373,104.9128,1.232981,0.9798071,3.338095
74.10332,99.95398,1.360458,0.9799718,3.370391
74.15419,95.37663,1.473626,0.9798071,3.331636
74.2046,94.48659,1.56078,0.9798071,3.351014
74.25297,94.2323,1.705167,0.9796425,3.351014
74.30347,89.65494,1.835245,0.9798071,3.351014
74.35369,86.09478,1.902886,0.9798071,3.344555
74.40443,85.20473,1.987437,0.9798071,3.338095
74.45445,83.42466,2.088899,0.9798071,3.344555
74.50344,82.53461,2.148735,0.9798071,3.338095
74.55319,79.10161,2.195563,0.9799718,3.338095
74.6037,76.94007,2.237189,0.9799718,3.331636
74.65451,99.57254,2.268408,0.9798071,3.338095
74.70375,110.8888,2.297025,0.9799718,3.344555
74.75344,107.2015,2.30483,0.9798071,3.351014
74.80334,105.2942,2.302228,0.9796425,3.351014
74.85296,104.7856,2.280114,0.9796425,3.351014
74.90412,99.57254,2.22288,0.9798071,3.351014
74.9538,94.48659,2.174751,0.9798071,3.351014
75.00348,94.99519,2.12402,0.9798071,3.351014
75.05318,93.46941,2.081094,0.9798071,3.357473
75.10342,89.40065,2.04207,0.9798071,3.357473
75.15369,85.84048,2.00825,0.9798071,3.357473
75.20419,83.55181,1.99134,0.9798071,3.363932
75.25344,82.15317,1.95882,0.9798071,3.363932
75.30342,78.33871,1.996543,0.9799718,3.363932
75.3532,78.59301,1.919796,0.9798071,3.370391
75.40418,84.44184,1.854757,0.9798071,3.376851
75.45474,110.253,1.780612,0.9798071,3.38331
75.50322,107.3286,1.679151,0.9798071,3.38331
75.5527,105.5485,1.585494,0.9798071,3.38331
75.60312,104.5313,1.524357,0.9796425,3.376851
75.65394,96.39381,1.299321,0.9798071,3.376851
75.7045,94.10515,1.175746,0.9798071,3.38331
75.75269,93.72369,1.36306,0.9798071,3.38331
75.80357,89.78209,1.179649,0.9798071,3.389769
75.8533,85.71333,1.112008,0.9798071,3.389769
75.9042,84.569,1.178348,0.9798071,3.396228
75.95393,82.91606,1.100301,0.9798071,3.396228
76.00331,80.37309,1.014449,0.9798071,3.396228
76.05344,76.94007,0.9715229,0.9798071,3.402687
76.10294,74.39711,0.9051826,0.9799718,3.396228
76.15433,88.63776,0.737381,0.9798071,3.402687
76.20406,108.8544,0.615107,0.9799718,3.402687
76.25294,104.6585,0.4707201,0.9798071,3.409146
76.30282,103.2598,0.4395012,0.9799718,3.409146
76.35368,103.5141,0.4395012,0.9798071,3.409146
76.40394,103.387,0.4069811,0.9799718,3.409146
76.45386,92.7065,0.3926724,0.9798071,3.415606
76.50281,92.57936,0.3341373,0.9798071,3.415606
76.55431,92.83366,0.4277939,0.9798071,3.422065
76.60354,90.03638,0.5526693,0.9798071,3.422065
76.65387,86.98483,0.6593339,0.9799718,3.422065
76.70419,83.04321,0.8323388,0.9798071,3.428524
76.75371,82.28033,1.195258,0.9798071,3.428524
76.80279,80.75454,1.425498,0.9796425,3.428524
76.85341,78.08442,1.424197,0.9798071,3.428524
76.90469,79.99165,1.591998,0.9798071,3.422065
76.95418,108.0915,1.653135,0.9798071,3.422065
77.00382,111.1431,1.689557,0.9798071,3.434983
77.05279,107.9643,1.766304,0.9798071,3.441442
77.10312,106.4386,1.80923,0.9799718,3.447901
77.15453,106.82,1.761101,0.9799718,3.441442
77.20417,99.06393,1.831343,0.9798071,3.447901
77.25349,96.13953,1.979633,0.9798071,3.441442
77.30308,96.13953,2.086297,0.9799718,3.441442
77.35269,95.75809,2.174751,0.9798071,3.447901
77.40418,93.34225,2.196865,0.9798071,3.45436
77.45391,87.74771,2.20597,0.9798071,3.45436
77.50347,85.96764,2.199466,0.9798071,3.45436
77.55383,83.80611,2.187759,0.9798071,3.45436
77.6032,81.39028,2.17345,0.9798071,3.45436
77.65406,81.39028,2.126621,0.9796425,3.460819
77.70468,111.2702,2.030364,0.9798071,3.460819
77.75316,111.2702,1.902886,0.9798071,3.460819
77.80315,107.9643,1.748093,0.9798071,3.460819
77.85342,106.82,1.602405,0.9796425,3.460819
77.90381,104.5313,1.448912,0.9798071,3.467279
77.95445,98.04675,1.29672,0.9798071,3.467279
78.00306,95.24948,1.213469,0.9798071,3.460819
78.05295,96.52097,1.141926,0.9798071,3.467279
78.10356,93.08795,1.112008,0.9798071,3.460819
78.15454,89.14634,1.156235,0.9798071,3.467279
78.20404,85.96764,1.162739,0.9798071,3.467279
78.25348,84.3147,1.095098,0.9798071,3.467279
78.30318,81.77173,0.9832298,0.9798071,3.473738
78.35317,79.61021,0.8973779,0.9798071,3.467279
78.40417,83.80611,0.7477877,0.9799718,3.473738
78.45468,111.3974,0.6138063,0.9796425,3.473738
78.50291,108.8544,0.5682787,0.9798071,3.467279
78.55358,106.4386,0.4368993,0.9799718,3.467279
78.60286,106.1843,0.1884492,0.9798071,3.467279
78.65468,103.387,0.06487443,0.9799718,3.473738
78.70422,96.39381,0.05967113,0.9798071,3.473738
78.75329,95.75809,0.05316712,0.9798071,3.473738
78.80279,95.24948,-0.04179015,0.9798071,3.467279
78.85342,91.94361,-0.1237399,0.9798071,3.473738
78.90398,88.00201,-0.1497554,0.9798071,3.473738
78.95392,84.82329,-0.1705682,0.9798071,3.473738
79.00278,83.17036,-0.208291,0.9799718,3.473738
79.05317,81.13599,-0.2954436,0.9798071,3.473738
79.10381,78.21156,-0.3214596,0.9798071,3.473738
79.15401,80.50024,-0.3071509,0.9798071,3.473738
79.20467,108.0915,-0.3032483,0.9798071,3.473738
79.2529,109.363,-0.2993462,0.9798071,3.473738
79.30379,105.93,-0.2811349,0.9798071,3.473738
79.35291,105.6757,-0.2616233,0.9798071,3.473738
79.40454,106.3114,-0.2551193,0.9796425,3.473738
79.45417,96.90242,-0.2147951,0.9799718,3.473738
79.50384,95.63092,-0.153658,0.9798071,3.480197
79.55335,95.37663,-0.0704076,0.9798071,3.480197
79.60293,93.34225,0.04406171,0.9798071,3.480197
79.65408,89.2735,0.1741404,0.9798071,3.480197
79.70454,85.58618,0.4746222,0.9798071,3.480197
79.75353,83.93326,0.7790065,0.9798071,3.486656
79.80341,81.77173,0.8791671,0.9798071,3.480197
79.85316,80.75454,0.9494095,0.9796425,3.480197
79.90404,78.21156,1.065179,0.9798071,3.480197
79.95395,77.44867,1.209567,0.9798071,3.486656
80.0028,103.0055,1.29672,0.9798071,3.486656
80.05354,109.6173,1.338345,0.9798071,3.486656
80.10332,106.5657,1.372165,0.9799718,3.480197
80.15405,105.93,1.428099,0.9798071,3.480197
80.20427,105.93,1.513951,0.9798071,3.480197
80.25282,100.4626,1.796222,0.9798071,3.486656
80.30367,96.52097,2.053778,0.9798071,3.480197
80.35308,95.75809,2.109711,0.9798071,3.486656
80.40416,94.99519,2.269708,0.9798071,3.499574
80.45458,90.67213,2.330845,0.9798071,3.486656
80.50282,87.74771,2.364666,0.9798071,3.480197
80.55316,85.71333,2.394584,0.9798071,3.486656
80.6039,85.45904,2.375072,0.9798071,3.486656
80.65439,85.20473,2.290521,0.9798071,3.486656
80.70428,81.64457,2.50385,0.9798071,3.480197
80.7532,88.00201,2.297025,0.9798071,3.467279
80.80354,107.8372,1.84305,0.9798071,3.473738
80.85352,104.5313,1.448912,0.9798071,3.473738
80.90482,104.1499,1.196559,0.9799718,3.473738
80.95394,105.0399,1.085992,0.9798071,3.473738
81.00319,101.7341,1.036562,0.9799718,3.473738
81.05354,94.74089,0.7829086,0.9798071,3.473738
81.10293,94.99519,0.7139669,0.9799718,3.473738
81.15485,93.978,0.6697405,0.9798071,3.473738
81.20415,91.05358,0.6853499,0.9798071,3.473738
81.25291,84.95044,0.6476271,0.9798071,3.480197
81.30393,82.15317,0.6099042,0.9799718,3.480197
81.35366,79.86449,0.5552712,0.9798071,3.480197
81.4039,80.11879,0.4941342,0.9798071,3.480197
81.45428,77.44867,0.4225906,0.9798071,3.480197
81.50315,75.03284,0.3926724,0.9798071,3.473738
81.55396,100.844,0.3952743,0.9799718,3.473738
81.60328,107.9643,0.499337,0.9798071,3.467279
81.65455,105.4214,0.7659985,0.9798071,3.467279
81.70479,104.0227,0.9728236,0.9798071,3.467279
81.75314,102.7513,1.106805,0.9799718,3.447901
81.80369,98.9368,1.236883,0.9799718,3.447901
81.85343,93.72369,1.402083,0.9798071,3.460819
81.90468,93.34225,1.620615,0.9798071,3.467279
81.95402,91.94361,1.788417,0.9798071,3.467279
82.0039,87.62056,1.897684,0.9799718,3.460819
82.05341,85.71333,2.012152,0.9798071,3.467279
82.10313,83.17036,2.181255,0.9799718,3.473738
82.15414,80.24594,2.23979,0.9798071,3.506034
82.20414,78.21156,2.254099,0.9798071,3.460819
82.25355,76.30434,2.268408,0.9796425,3.460819
82.30302,81.64457,2.221579,0.9799718,3.460819
82.35342,103.387,1.951015,0.9798071,3.460819
82.40443,108.2186,1.763702,0.9798071,3.45436
82.45503,105.2942,1.563381,0.9796425,3.460819
82.50342,103.5141,1.377369,0.9799718,3.45436
82.55389,102.8784,1.145828,0.9799718,3.460819
82.60339,95.63092,0.9806284,0.9798071,3.45436
82.65425,93.85085,0.7933152,0.9798071,3.45436
82.70451,93.46941,0.7048615,0.9796425,3.447901
82.75327,90.03638,0.6307169,0.9799718,3.45436
82.80303,86.73053,0.5435639,0.9798071,3.447901
82.85408,83.80611,0.4655167,0.9798071,3.447901
82.90406,82.28033,0.4186884,0.9798071,3.447901
82.95475,79.73734,0.3588521,0.9798071,3.447901
83.00415,76.94007,0.3679576,0.9798071,3.447901
83.05293,82.15317,0.3705595,0.9798071,3.447901
83.10354,109.4901,0.3497467,0.9799718,3.447901
83.1544,106.82,0.3432427,0.9798071,3.447901
83.20515,104.1499,0.3445434,0.9798071,3.447901
83.25317,104.1499,0.335438,0.9798071,3.441442
83.30352,102.8784,0.335438,0.9799718,3.441442
83.35377,94.61374,0.3393406,0.9799718,3.441442
83.40425,94.48659,0.328934,0.9798071,3.441442
83.45439,94.86804,0.3341373,0.9796425,3.447901
83.50376,91.94361,0.3367387,0.9798071,3.441442
83.55316,87.11198,0.3406413,0.9798071,3.441442
83.6034,85.20473,0.3380394,0.9798071,3.441442
83.65488,82.53461,0.328934,0.9798071,3.441442
83.70452,81.26313,0.3081213,0.9798071,3.441442
83.75316,78.33871,0.2769024,0.9798071,3.441442
83.80315,76.17719,0.2847071,0.9796425,3.441442
83.85417,91.68932,0.2586916,0.9798071,3.441442
83.90437,109.8716,0.1845466,0.9798071,3.441442
83.95464,105.6757,0.1611324,0.9799718,3.441442
84.00313,104.1499,0.1598317,0.9799718,3.441442
84.0532,104.5313,0.158531,0.9798071,3.441442
84.10327,101.4798,0.1559296,0.9798071,3.441442
84.15417,95.37663,0.145523,0.9798071,3.441442
84.20489,94.86804,0.1273122,0.9798071,3.441442
84.25306,93.2151,0.1325154,0.9798071,3.441442
84.30337,89.65494,0.1416209,0.9798071,3.441442
84.35365,86.85767,0.200156,0.9799718,3.441442
84.40475,85.20473,0.3081213,0.9799718,3.441442
84.4549,82.53461,0.4134852,0.9799718,3.441442
84.50412,81.39028,0.5591733,0.9798071,3.434983
84.55314,78.59301,0.7308775,0.9798071,3.441442
84.60378,76.17719,0.9064834,0.9798071,3.441442
84.65488,83.17036,1.13152,0.9798071,3.441442
84.70456,109.8716,1.266801,0.9798071,3.434983
84.7537,106.0571,1.372165,0.9798071,3.441442
84.80374,104.5313,1.451513,0.9798071,3.441442
84.85365,104.6585,1.571186,0.9798071,3.434983
84.90438,103.5141,1.640127,0.9799718,3.441442
84.95478,94.99519,1.689557,0.9799718,3.441442
85.00389,94.61374,1.714272,0.9796425,3.441442
85.0535,94.2323,1.733784,0.9796425,3.434983
85.10339,90.41783,1.742889,0.9798071,3.434983
85.1544,87.49342,1.735085,0.9798071,3.441442
85.2048,85.96764,1.725979,0.9798071,3.441442
85.25323,83.04321,1.715573,0.9798071,3.434983
85.30379,81.26313,1.69346,0.9798071,3.434983
85.35352,79.10161,1.654436,0.9798071,3.441442
85.40431,78.59301,1.542568,0.9798071,3.441442
85.45477,107.71,1.343548,0.9799718,3.441442
85.50388,105.8028,1.125016,0.9798071,3.434983
85.55326,103.5141,0.9324993,0.9798071,3.434983
85.60326,102.6241,0.6918535,0.9799718,3.434983
85.65443,99.95398,0.518849,0.9798071,3.434983
85.70457,94.48659,0.444704,0.9799718,3.441442
85.7535,94.74089,0.3796649,0.9798071,3.434983
85.80364,94.86804,0.3263326,0.9798071,3.434983
85.85366,91.56216,0.2769024,0.9798071,3.434983
85.90424,88.12916,0.2573909,0.9799718,3.434983
85.95504,86.34908,0.2339767,0.9798071,3.441442
86.00401,84.18755,0.1910506,0.9798071,3.441442
86.05312,82.53461,0.1676364,0.9798071,3.434983
86.10434,79.99165,0.171539,0.9798071,3.434983
86.15437,84.44184,0.1741404,0.9798071,3.434983
86.20501,108.4729,0.1611324,0.9798071,3.434983
86.25314,105.6757,0.1572303,0.9798071,3.434983
86.30412,104.277,0.152027,0.9798071,3.434983
86.35339,104.9128,0.1546284,0.9798071,3.434983
86.40479,104.4042,0.1286129,0.9798071,3.434983
86.45441,97.66531,0.1234096,0.9796425,3.434983
86.50314,97.15671,0.1182067,0.9798071,3.434983
86.55363,96.52097,0.1208081,0.9798071,3.434983
86.60424,94.2323,0.1221088,0.9798071,3.434983
86.65426,89.5278,0.1195074,0.9798071,3.428524
86.70439,87.74771,0.1156048,0.9798071,3.434983
86.75375,85.71333,0.1143041,0.9799718,3.434983
86.80351,84.44184,0.1156048,0.9798071,3.434983
86.85392,82.28033,0.1012966,0.9798071,3.434983
86.90412,79.48306,0.1025973,0.9798071,3.434983
86.95515,84.0604,0.097394,0.9798071,3.434983
87.00414,109.4901,0.08438598,0.9798071,3.434983
87.05313,106.4386,0.08698788,0.9799718,3.434983
87.10374,105.1671,0.08958928,0.9799718,3.434983
87.15508,105.93,0.09088999,0.9798071,3.428524
87.20463,106.1843,0.08958928,0.9798071,3.434983
87.25387,100.0811,0.08958928,0.9798071,3.434983
87.30414,98.42819,0.08698788,0.9799718,3.434983
87.35415,98.42819,0.08568717,0.9798071,3.434983
87.40431,97.9196,0.08308528,0.9798071,3.434983
87.45435,93.2151,0.08308528,0.9798071,3.428524
87.50414,90.67213,0.08308528,0.9798071,3.434983
87.55348,87.74771,0.08958928,0.9798071,3.428524
87.60351,85.96764,0.1182067,0.9796425,3.428524
87.65511,84.569,0.2430822,0.9798071,3.434983
87.70484,82.02603,0.4121844,0.9798071,3.428524
87.7541,79.48306,0.5500679,0.9798071,3.434983
87.80377,78.59301,0.7712018,0.9798071,3.428524
87.85363,107.3286,0.8869718,0.9796425,3.428524
87.90417,108.9815,1.069082,0.9798071,3.428524
87.95488,106.3114,1.226477,0.9798071,3.434983
88.00365,106.4386,1.331841,0.9798071,3.428524
88.05388,106.5657,1.382571,0.9798071,3.428524
88.10387,101.3526,1.455416,0.9798071,3.428524
88.15537,100.2083,1.532162,0.9799718,3.428524
88.20499,98.04675,1.591998,0.9798071,3.428524
88.25367,96.90242,1.623217,0.9798071,3.428524
88.30422,94.10515,1.640127,0.9798071,3.428524
88.35349,91.56216,1.646631,0.9796425,3.428524
88.40442,90.41783,1.646631,0.9799718,3.422065
88.45516,86.73053,1.645331,0.9799718,3.428524
88.50342,86.22193,1.637526,0.9796425,3.428524
88.55343,82.91606,1.62842,0.9798071,3.422065
88.60354,82.53461,1.602405,0.9798071,3.422065
88.65427,106.4386,1.549072,0.9798071,3.422065
88.70425,105.8028,1.51265,0.9798071,3.422065
88.75365,104.6585,1.467123,0.9798071,3.422065
88.80405,103.7684,1.422896,0.9796425,3.422065
88.85338,103.1327,1.374767,0.9799718,3.422065
88.90485,97.66531,1.339646,0.9798071,3.422065
88.95524,97.15671,1.309728,0.9798071,3.415606
89.00365,96.90242,1.282411,0.9796425,3.422065
89.05338,94.61374,1.240786,0.9796425,3.415606
89.10436,91.43503,1.174446,0.9798071,3.415606
89.15488,88.7649,1.074285,0.9798071,3.415606
89.20467,86.85767,0.9975385,0.9799718,3.415606
89.25337,85.33189,0.9377022,0.9798071,3.415606
89.30437,82.40748,0.8635576,0.9796425,3.415606
89.35415,81.00883,0.8440456,0.9798071,3.415606
89.40462,81.00883,0.7842093,0.9798071,3.415606
89.45461,105.8028,0.7295763,0.9798071,3.409146
89.50376,104.6585,0.7074634,0.9798071,3.415606
89.55405,103.5141,0.7113655,0.9796425,3.409146
89.60322,104.0227,0.7087641,0.9796425,3.409146
89.65497,99.95398,0.6970568,0.9798071,3.409146
89.70493,97.28386,0.6801466,0.9798071,3.415606
89.75327,96.52097,0.6619358,0.9798071,3.409146
89.80403,95.50377,0.6515292,0.9798071,3.409146
89.85387,93.46941,0.6411231,0.9798071,3.409146
89.90446,90.54498,0.6359197,0.9798071,3.409146
89.95477,87.49342,0.6229118,0.9799718,3.409146
90.00373,85.71333,0.6125056,0.9796425,3.402687
90.05436,84.0604,0.5903922,0.9798071,3.409146
90.10375,82.02603,0.5760834,0.9796425,3.402687
90.15522,79.99165,0.5175483,0.9799718,3.409146
90.20486,78.21156,0.4915323,0.9798071,3.402687
90.25398,81.00883,0.4629153,0.9798071,3.402687
90.30373,105.4214,0.4082823,0.9798071,3.402687
90.35447,104.5313,0.3926724,0.9798071,3.402687
90.40471,103.7684,0.383567,0.9798071,3.402687
90.45427,104.9128,0.3445434,0.9798071,3.402687
90.50336,102.2427,0.3003166,0.9799718,3.402687
90.55424,98.30104,0.2899104,0.9798071,3.402687
90.60413,96.90242,0.274301,0.9796425,3.396228
90.65475,96.77527,0.274301,0.9798071,3.396228
90.70448,93.978,0.2795043,0.9798071,3.396228
90.75327,89.65494,0.2756017,0.9798071,3.396228
90.80374,87.62056,0.2730003,0.9798071,3.396228
90.85336,85.33189,0.2690977,0.9798071,3.396228
90.90472,83.29751,0.2625942,0.9798071,3.396228
90.95441,81.89888,0.2482855,0.9798071,3.389769
91.00349,80.11879,0.2092619,0.9798071,3.396228
91.05431,77.95727,0.1832459,0.9798071,3.389769
91.10349,75.54144,0.1832459,0.9799718,3.389769
91.15461,78.21156,0.1962539,0.9798071,3.389769
91.20521,107.5829,0.2040586,0.9799718,3.396228
91.25423,105.5485,0.2899104,0.9799718,3.38331
91.30373,103.7684,0.3978757,0.9798071,3.389769
91.35423,104.1499,0.4928335,0.9798071,3.38331
91.40538,104.5313,0.5903922,0.9798071,3.389769
91.45509,98.04675,0.7607952,0.9796425,3.389769
91.50334,97.15671,0.8752645,0.9796425,3.389769
91.55441,95.37663,1.056074,0.9798071,3.389769
91.60413,93.34225,1.219973,0.9798071,3.38331
91.65498,90.67213,1.322736,0.9798071,3.389769
91.70538,88.63776,1.407287,0.9798071,3.38331
91.75408,85.71333,1.452814,0.9798071,3.38331
91.80379,84.569,1.541268,0.9799718,3.38331
91.85384,83.67896,1.619315,0.9798071,3.376851
91.90516,81.77173,1.644029,0.9798071,3.38331
91.95512,77.95727,1.657037,0.9799718,3.38331
92.00436,77.44867,1.670046,0.9798071,3.38331
92.0536,88.00201,1.655737,0.9798071,3.376851
92.10436,107.2015,1.641428,0.9798071,3.376851
92.15483,104.5313,1.614112,0.9798071,3.376851
92.20523,103.0055,1.568584,0.9799718,3.376851
92.25421,102.7513,1.498342,0.9798071,3.376851
92.30414,100.9712,1.435904,0.9798071,3.376851
92.35436,96.13953,1.390376,0.9798071,3.376851
92.40439,94.99519,1.34615,0.9799718,3.376851
92.45538,94.99519,1.295419,0.9796425,3.376851
92.50436,93.34225,1.251192,0.9799718,3.376851
92.55347,89.5278,1.212168,0.9798071,3.376851
92.60384,86.09478,1.175746,0.9798071,3.370391
92.65459,84.569,1.101602,0.9798071,3.370391
92.70463,83.80611,1.017051,0.9799718,3.370391
92.75385,80.75454,0.9338001,0.9796425,3.370391
92.80372,78.21156,0.9025812,0.9798071,3.370391
92.85433,84.0604,0.8505496,0.9796425,3.370391
92.90508,107.5829,0.8232334,0.9798071,3.370391
92.95485,104.6585,0.7920145,0.9798071,3.370391
93.00397,103.1327,0.7646978,0.9798071,3.363932
93.0535,102.7513,0.7269749,0.9798071,3.363932
93.10378,101.9884,0.7100648,0.9799718,3.363932
93.15501,95.37663,0.7009593,0.9798071,3.363932
93.20462,94.48659,0.682748,0.9798071,3.363932
93.25385,94.2323,0.6749433,0.9798071,3.363932
93.30459,91.94361,0.6645372,0.9798071,3.357473
93.35384,88.5106,0.6528299,0.9798071,3.363932
93.40448,86.09478,0.6333184,0.9798071,3.357473
93.45496,83.42466,0.6229118,0.9799718,3.363932
93.50385,81.39028,0.615107,0.9798071,3.357473
93.55447,78.72016,0.5981969,0.9798071,3.363932
93.604,77.06723,0.5851893,0.9798071,3.357473
93.65496,76.55863,0.5552712,0.9798071,3.357473
93.70469,73.50706,0.5136457,0.9798071,3.357473
93.7542,73.88851,0.5084429,0.9799718,3.357473
93.8036,99.19109,0.4824269,0.9798071,3.357473
93.85384,106.9472,0.4642161,0.9798071,3.357473
93.90508,104.1499,0.4525087,0.9799718,3.357473
93.95471,103.0055,0.4499073,0.9798071,3.357473
94.00426,103.6413,0.4303953,0.9798071,3.357473
94.05437,100.7169,0.4017783,0.9798071,3.357473
94.10447,95.88522,0.3731609,0.9798071,3.351014
94.1552,95.24948,0.3458441,0.9798071,3.357473
94.2049,94.35944,0.3406413,0.9798071,3.351014
94.25407,89.90925,0.328934,0.9798071,3.351014
94.30394,86.09478,0.3237312,0.9798071,3.351014
94.35447,85.58618,0.3055199,0.9798071,3.351014
94.40499,83.67896,0.3055199,0.9798071,3.351014
94.45482,79.3559,0.3068206,0.9798071,3.351014
94.5041,78.21156,0.3016177,0.9798071,3.351014
94.55421,76.55863,0.3094225,0.9798071,3.344555
94.60396,75.03284,0.3146253,0.9798071,3.351014
94.65532,73.12562,0.3250319,0.9798071,3.351014
94.70499,72.10844,0.3328366,0.9798071,3.351014
94.75418,69.56546,0.3874696,0.9798071,3.344555
94.80373,71.85413,0.4290946,0.9799718,3.344555
94.85373,86.09478,0.4850288,0.9798071,3.344555
94.90459,103.5141,0.5682787,0.9798071,3.344555
94.9552,103.0055,0.6775452,0.9799718,3.344555
95.00384,103.7684,0.7790065,0.9796425,3.344555
95.05378,100.0811,0.8362409,0.9799718,3.344555
95.10457,96.39381,0.927296,0.9798071,3.344555
95.15559,95.24948,1.061277,0.9798071,3.344555
95.20532,94.48659,1.164039,0.9798071,3.344555
95.25433,90.29069,1.212168,0.9798071,3.338095
95.30376,88.38345,1.255095,0.9798071,3.344555
95.35471,85.58618,1.29802,0.9798071,3.338095
95.40518,82.78893,1.327938,0.9798071,3.338095
95.4556,81.77173,1.339646,0.9798071,3.344555
95.5041,78.97446,1.356556,0.9798071,3.344555
95.55383,77.83012,1.353954,0.9796425,3.338095
95.60435,76.17719,1.339646,0.9798071,3.344555
95.65509,73.88851,1.324036,0.9798071,3.338095
95.70483,76.94007,1.291517,0.9796425,3.338095
95.75395,98.80965,1.24859,0.9798071,3.338095
95.80358,103.7684,1.209567,0.9798071,3.338095
95.8547,102.497,1.164039,0.9796425,3.338095
95.90568,102.497,1.102902,0.9798071,3.344555
95.95548,102.8784,0.9923357,0.9798071,3.338095
96.00429,96.01237,0.9429055,0.9798071,3.338095
96.05475,92.96081,0.9051826,0.9798071,3.344555
96.1043,93.72369,0.8830692,0.9798071,3.338095
96.15494,89.14634,0.8466475,0.9798071,3.338095
96.20534,85.58618,0.8219322,0.9798071,3.338095
96.2536,83.67896,0.7907133,0.9798071,3.338095
96.30431,81.64457,0.7712018,0.9799718,3.338095
96.3546,79.3559,0.7386822,0.9798071,3.338095
96.40517,78.97446,0.7191702,0.9796425,3.338095
96.45469,75.79574,0.6853499,0.9798071,3.338095
96.50462,74.14281,0.6593339,0.9798071,3.331636
96.55394,73.12562,0.6320176,0.9798071,3.338095
96.60384,96.26666,0.5786853,0.9798071,3.331636
96.65507,107.2015,0.5253531,0.9798071,3.331636
96.70468,103.0055,0.4928335,0.9798071,3.331636
96.75465,102.497,0.4772241,0.9798071,3.331636
96.80384,101.8612,0.4277939,0.9799718,3.338095
96.85455,97.28386,0.3874696,0.9798071,3.331636
96.90462,92.96081,0.3250319,0.9798071,3.331636
96.95495,92.57936,0.2756017,0.9798071,3.331636
97.00414,90.79928,0.2795043,0.9798071,3.331636
97.05412,86.34908,0.2769024,0.9799718,3.331636
97.10384,83.55181,0.267797,0.9799718,3.325177
97.15468,80.88168,0.2651956,0.9798071,3.331636
97.20487,79.48306,0.267797,0.9798071,3.331636
97.25445,77.57583,0.2651956,0.9799718,3.331636
97.30406,75.41429,0.2573909,0.9799718,3.331636
97.35434,74.65141,0.2521876,0.9798071,3.325177
97.40509,73.76136,0.2287734,0.9798071,3.331636
97.45507,71.09124,0.2274727,0.9798071,3.331636
97.50371,75.41429,0.2105626,0.9798071,3.325177
97.55424,104.4042,0.200156,0.9798071,3.331636
97.60434,103.7684,0.200156,0.9798071,3.331636
97.65585,102.7513,0.2027579,0.9798071,3.325177
97.7051,102.6241,0.200156,0.9799718,3.325177
97.75471,100.5897,0.1923513,0.9798071,3.325177
97.80444,94.10515,0.1871485,0.9799718,3.325177
97.85423,94.2323,0.1598317,0.9798071,3.325177
97.90484,94.2323,0.1689371,0.9798071,3.325177
97.95506,90.29069,0.1910506,0.9798071,3.325177
98.0037,86.47623,0.1988553,0.9798071,3.318718
98.05444,84.18755,0.2248713,0.9798071,3.318718
98.10396,82.15317,0.2769024,0.9799718,3.325177
98.15485,78.97446,0.2964144,0.9798071,3.325177
98.20506,78.21156,0.3692583,0.9798071,3.325177
98.25407,75.79574,0.4368993,0.9796425,3.318718
98.3047,74.90571,0.4967356,0.9798071,3.325177
98.35429,71.98129,0.6554317,0.9798071,3.318718
98.40509,72.10844,0.8648583,0.9798071,3.325177
98.45485,92.07076,1.026156,0.9798071,3.318718
98.50467,108.7272,1.145828,0.9798071,3.318718
98.55469,104.7856,1.219973,0.9796425,3.318718
98.60406,102.497,1.270704,0.9799718,3.325177
98.65567,103.2598,1.314931,0.9798071,3.318718
98.70483,102.2427,1.337044,0.9798071,3.318718
98.75419,95.75809,1.352654,0.9798071,3.318718
98.80405,94.48659,1.353954,0.9798071,3.318718
98.85435,93.85085,1.351353,0.9798071,3.318718
98.90576,90.29069,1.348751,0.9798071,3.318718
98.95583,87.11198,1.335743,0.9799718,3.318718
99.00434,84.82329,1.314931,0.9796425,3.318718
99.05447,82.53461,1.285013,0.9798071,3.318718
99.10447,81.00883,1.24859,0.9798071,3.312259
99.15569,79.3559,1.205664,0.9799718,3.312259
99.20509,76.17719,1.188754,0.9798071,3.318718
99.25392,82.53461,1.126317,0.9798071,3.318718
99.30406,109.4901,1.06648,0.9798071,3.312259
99.35368,106.4386,0.9975385,0.9798071,3.312259
99.40522,105.2942,0.9624175,0.9798071,3.312259
99.45586,103.387,0.8739638,0.9799718,3.312259
99.50367,101.6069,0.8219322,0.9798071,3.312259
99.55442,94.48659,0.7829086,0.9798071,3.312259
99.60384,94.10515,0.7451857,0.9798071,3.3058
99.6553,94.10515,0.6983575,0.9799718,3.312259
99.70509,89.78209,0.6723419,0.9798071,3.312259
99.75375,86.73053,0.6463264,0.9798071,3.3058
99.80371,84.82329,0.6099042,0.9798071,3.312259
99.85429,82.53461,0.5825875,0.9798071,3.312259
99.90509,81.00883,0.5617752,0.9798071,3.3058
99.9548,79.73734,0.5253531,0.9799718,3.312259
100.0048,76.68578,0.4928335,0.9798071,3.3058
100.054,74.65141,0.4850288,0.9798071,3.3058
100.1039,80.88168,0.451208,0.9798071,3.3058
100.1556,102.497,0.4238918,0.9798071,3.3058
100.2051,104.9128,0.4199892,0.9798071,3.312259
100.2548,103.2598,0.4212899,0.9799718,3.3058
100.3038,103.5141,0.4121844,0.9798071,3.3058
100.3546,101.4798,0.4056804,0.9798071,3.3058
100.4058,96.39381,0.3861689,0.9798071,3.3058
100.4548,94.10515,0.3679576,0.9798071,3.3058
100.504,94.2323,0.3627548,0.9798071,3.3058
100.5543,89.40065,0.35495,0.9798071,3.3058
100.6043,86.98483,0.341942,0.9798071,3.3058
100.6558,83.93326,0.328934,0.9799718,3.3058
100.7051,82.53461,0.3250319,0.9798071,3.3058
100.7547,80.11879,0.3237312,0.9799718,3.3058
100.8046,78.59301,0.32243,0.9798071,3.3058
100.8548,76.94007,0.293813,0.9798071,3.29934
100.9054,74.52426,0.2690977,0.9798071,3.29934
100.9558,73.76136,0.2899104,0.9799718,3.29934
101.0045,95.24948,0.2690977,0.9798071,3.29934
101.0548,108.7272,0.2651956,0.9798071,3.29934
101.1046,106.0571,0.2651956,0.9798071,3.29934
101.1551,105.2942,0.2651956,0.9798071,3.29934
101.2049,105.8028,0.2586916,0.9798071,3.29934
101.2545,103.0055,0.2586916,0.9799718,3.29934
101.3043,96.90242,0.2495862,0.9798071,3.292881
101.354,96.90242,0.23918,0.9796425,3.292881
101.4051,94.48659,0.2430822,0.9799718,3.29934
101.4548,90.16354,0.2430822,0.9796425,3.29934
101.5041,86.73053,0.2456836,0.9798071,3.29934
101.5548,84.82329,0.2469848,0.9798071,3.29934
101.6046,82.66177,0.2495862,0.9798071,3.29934
101.6555,80.50024,0.2690977,0.9798071,3.29934
101.7065,78.97446,0.3237312,0.9798071,3.29934
101.7547,77.44867,0.4082823,0.9799718,3.29934
101.8038,75.41429,0.4720207,0.9798071,3.292881
101.8549,72.23557,0.5968962,0.9799718,3.292881
101.9049,84.0604,0.7139669,0.9798071,3.292881
101.9548,109.1087,0.8076239,0.9798071,3.292881
102.004,107.0743,0.9025812,0.9798071,3.292881
102.0546,105.2942,1.062578,0.9799718,3.292881
102.1043,106.4386,1.188754,0.9799718,3.292881
102.1558,104.7856,1.255095,0.9798071,3.292881
102.2057,97.28386,1.316231,0.9799718,3.292881
102.2545,96.52097,1.366962,0.9798071,3.292881
102.3048,96.13953,1.394279,0.9798071,3.292881
102.3547,93.2151,1.41249,0.9798071,3.292881
102.4049,91.05358,1.4294,0.9798071,3.292881
102.4549,86.47623,1.44631,0.9798071,3.292881
102.5043,83.67896,1.450212,0.9798071,3.292881
102.554,81.39028,1.44631,0.9798071,3.292881
102.6042,80.50024,1.433302,0.9799718,3.292881
102.6557,76.94007,1.416392,0.9798071,3.292881
102.7057,76.55863,1.402083,0.9798071,3.292881
102.7538,88.7649,1.369564,0.9796425,3.292881
102.8039,107.9643,1.321434,0.9796425,3.286422
102.8546,105.2942,1.283712,0.9798071,3.286422
102.9058,104.0227,1.232981,0.9799718,3.292881
102.955,105.1671,1.167941,0.9796425,3.286422
103.0048,100.5897,1.106805,0.9798071,3.286422
103.0541,94.99519,1.001441,0.9798071,3.286422
103.1048,94.48659,0.9064834,0.9798071,3.286422
103.1549,91.81647,0.8401435,0.9801366,3.286422
103.2057,89.0192,0.7803072,0.9798071,3.286422
103.2543,85.96764,0.7399829,0.9798071,3.286422
103.3046,83.67896,0.6879513,0.9798071,3.286422
103.3549,80.88168,0.6567325,0.9799718,3.286422
103.4058,79.73734,0.6073023,0.9798071,3.286422
103.4554,78.59301,0.560474,0.9798071,3.292881
103.505,76.30434,0.5227512,0.9798071,3.286422
103.5545,73.50706,0.518849,0.9798071,3.279963
103.6045,82.15317,0.4876302,0.9798071,3.286422
103.6553,105.93,0.4616142,0.9798071,3.286422
103.7061,103.7684,0.4421026,0.9798071,3.286422
103.7545,103.0055,0.4316965,0.9798071,3.286422
103.8051,102.497,0.4121844,0.9799718,3.279963
103.8549,98.80965,0.3861689,0.9798071,3.279963
103.9058,94.86804,0.35495,0.9799718,3.279963
103.9552,94.48659,0.32243,0.9798071,3.286422
104.0045,92.45221,0.3120239,0.9798071,3.279963
104.0542,89.0192,0.3081213,0.9798071,3.279963
104.1048,86.47623,0.3029185,0.9798071,3.279963
104.156,83.67896,0.293813,0.9799718,3.279963
104.2058,82.15317,0.2860083,0.9799718,3.279963
104.2546,80.88168,0.2821057,0.9798071,3.279963
104.3048,79.73734,0.267797,0.9798071,3.279963
104.354,77.44867,0.2378788,0.9798071,3.279963
104.4055,76.17719,0.2105626,0.9798071,3.279963
104.456,73.76136,0.2248713,0.9798071,3.273504
104.5039,96.77527,0.2105626,0.9799718,3.279963
104.5543,109.8716,0.2105626,0.9798071,3.279963
104.6045,104.9128,0.219668,0.9798071,3.273504
104.6558,103.6413,0.2287734,0.9798071,3.273504
104.7054,105.1671,0.2235701,0.9798071,3.279963
104.7543,103.387,0.2222694,0.9798071,3.279963
104.8049,97.28386,0.2157654,0.9796425,3.279963
104.8549,96.77527,0.2144647,0.9796425,3.273504
104.9053,94.10515,0.2274727,0.9798071,3.273504
104.9558,90.54498,0.2664963,0.9799718,3.273504
105.0047,87.87486,0.32243,0.9799718,3.273504
105.0547,84.82329,0.3926724,0.9796425,3.273504
105.1046,83.17036,0.4733215,0.9798071,3.273504
105.1559,81.51743,0.566978,0.9798071,3.273504
105.2062,79.3559,0.6970568,0.9799718,3.273504
105.254,78.21156,0.8492489,0.9798071,3.273504
105.3039,76.68578,1.00014,0.9796425,3.267045
105.354,75.54144,1.125016,0.9798071,3.273504
105.405,73.37991,1.232981,0.9798071,3.267045
105.4561,76.55863,1.299321,0.9798071,3.267045
105.505,82.53461,1.366962,0.9798071,3.273504
105.554,106.1843,1.407287,0.9798071,3.273504
105.6043,104.1499,1.430701,0.9798071,3.273504
105.6551,105.5485,1.447611,0.9798071,3.267045
105.7061,104.5313,1.451513,0.9799718,3.273504
105.754,97.28386,1.451513,0.9798071,3.273504
105.8043,96.39381,1.450212,0.9798071,3.267045
105.8541,96.52097,1.44501,0.9796425,3.273504
105.9051,93.34225,1.433302,0.9798071,3.267045
105.9558,90.54498,1.417693,0.9799718,3.267045
106.0042,87.49342,1.385173,0.9798071,3.267045
106.055,85.96764,1.365661,0.9798071,3.273504
106.105,84.3147,1.326638,0.9798071,3.267045
106.1558,81.51743,1.282411,0.9798071,3.267045
106.2059,79.3559,1.251192,0.9798071,3.267045
106.2541,84.44184,1.205664,0.9798071,3.267045
106.3049,104.7856,1.139325,0.9798071,3.267045
106.3549,108.3458,1.080789,0.9798071,3.267045
106.405,106.82,0.9936364,0.9798071,3.260585
106.4558,104.6585,0.8778664,0.9798071,3.267045
106.5046,104.0227,0.7933152,0.9798071,3.267045
106.5546,96.52097,0.7321782,0.9798071,3.267045
106.6042,96.01237,0.6866506,0.9798071,3.267045
106.6558,94.86804,0.6450252,0.9796425,3.260585
106.705,92.19792,0.6020995,0.9798071,3.267045
106.755,88.63776,0.5838882,0.9799718,3.260585
106.805,86.34908,0.5513686,0.9798071,3.260585
106.854,83.29751,0.5162476,0.9798071,3.260585
106.9058,83.17036,0.5019389,0.9799718,3.260585
106.955,80.75454,0.4798255,0.9799718,3.267045
107.0041,80.11879,0.4212899,0.9798071,3.260585
107.0543,77.06723,0.4147859,0.9798071,3.260585
107.1043,80.62739,0.4134852,0.9798071,3.260585
107.1559,106.6929,0.377063,0.9799718,3.260585
107.2056,107.2015,0.3393406,0.9798071,3.260585
107.254,105.6757,0.3328366,0.9798071,3.260585
107.305,106.3114,0.3250319,0.9796425,3.260585
107.3545,105.93,0.2990158,0.9798071,3.260585
107.4055,101.8612,0.2834064,0.9798071,3.260585
107.4559,100.2083,0.2495862,0.9798071,3.260585
107.5043,97.53816,0.2443829,0.9798071,3.254126
107.5544,94.48659,0.2339767,0.9798071,3.260585
107.6042,90.29069,0.2339767,0.9798071,3.254126
107.6551,87.87486,0.2300741,0.9796425,3.260585
107.706,85.07759,0.2274727,0.9796425,3.260585
107.7545,84.0604,0.2235701,0.9799718,3.260585
107.8048,81.26313,0.2157654,0.9799718,3.254126
107.8546,80.62739,0.1793437,0.9798071,3.254126
107.9056,78.59301,0.1572303,0.9799718,3.260585
107.9558,76.30434,0.165035,0.9799718,3.260585
108.0043,84.44184,0.1663357,0.9798071,3.254126
108.0545,107.2015,0.1624336,0.9798071,3.254126
108.1051,108.9815,0.1702383,0.9798071,3.254126
108.1555,108.2186,0.171539,0.9798071,3.260585
108.206,106.82,0.1741404,0.9798071,3.254126
108.255,107.3286,0.171539,0.9796425,3.254126
108.3042,100.844,0.1767418,0.9799718,3.254126
108.3545,99.19109,0.2040586,0.9798071,3.254126
108.4057,98.30104,0.2534883,0.9798071,3.254126
108.456,96.39381,0.3406413,0.9799718,3.254126
108.5047,92.19792,0.4368993,0.9798071,3.254126
108.5549,89.90925,0.5279545,0.9798071,3.254126
108.6052,85.84048,0.6372204,0.9799718,3.254126
108.6553,84.44184,0.7816079,0.9798071,3.254126
108.7054,82.02603,0.9220927,0.9798071,3.254126
108.7552,80.50024,1.076887,0.9799718,3.254126
108.8049,79.3559,1.186153,0.9799718,3.247667
108.8548,76.55863,1.261599,0.9798071,3.254126
108.9051,75.28716,1.343548,0.9798071,3.254126
108.9561,84.18755,1.394279,0.9798071,3.247667
109.0041,111.0159,1.415091,0.9799718,3.247667
109.0551,106.82,1.428099,0.9799718,3.247667
109.1041,106.0571,1.433302,0.9798071,3.247667
109.156,106.82,1.434603,0.9799718,3.247667
109.2053,104.0227,1.4294,0.9798071,3.247667
109.2545,98.42819,1.421595,0.9798071,3.247667
109.3049,97.28386,1.403384,0.9798071,3.247667
109.3548,97.41101,1.372165,0.9798071,3.247667
109.4062,95.50377,1.329239,0.9798071,3.247667
109.4562,91.30788,1.29802,0.9798071,3.247667
109.5048,87.87486,1.265501,0.9798071,3.247667
109.555,85.96764,1.23038,0.9798071,3.247667
109.6045,84.82329,1.192657,0.9798071,3.247667
109.6555,81.51743,1.140625,0.9796425,3.247667
109.706,79.73734,1.11591,0.9798071,3.247667
109.7553,84.44184,1.037863,0.9799718,3.247667
109.805,109.1087,0.9364015,0.9798071,3.247667
109.8544,107.9643,0.8817685,0.9798071,3.241208
109.9057,105.93,0.8258348,0.9798071,3.247667
109.9554,104.7856,0.7594945,0.9799718,3.247667
110.0046,104.5313,0.7230728,0.9799718,3.247667
110.0551,98.42819,0.6814473,0.9798071,3.241208
110.1041,98.04675,0.6307169,0.9798071,3.241208
110.1557,96.77527,0.6020995,0.9799718,3.241208
110.206,93.46941,0.5773847,0.9799718,3.241208
110.255,90.29069,0.5565719,0.9796425,3.241208
110.3052,87.87486,0.5279545,0.9898543,3.247667
110.3542,85.33189,0.5045403,0.9896896,3.241208
110.4053,83.55181,0.4733215,0.9898543,3.241208
110.4553,81.64457,0.4382,0.9898543,3.241208
110.5049,79.99165,0.3718602,0.9898543,3.241208
110.5545,77.83012,0.3523481,0.9898543,3.241208
110.6053,79.61021,0.3341373,0.9900191,3.241208
110.6554,106.3114,0.3055199,0.9898543,3.241208
110.7058,109.1087,0.2964144,0.9896896,3.241208
110.7552,106.4386,0.2834064,0.9898543,3.241208
110.805,106.82,0.287309,0.9896896,3.234749
110.8549,106.0571,0.2534883,0.9896896,3.241208
110.906,99.69969,0.2560902,0.9898543,3.241208
110.9562,98.6825,0.2365782,0.9898543,3.241208
111.005,98.04675,0.2339767,0.9898543,3.241208
111.0553,94.48659,0.2352774,0.9898543,3.234749
111.1048,90.29069,0.2339767,0.9898543,3.234749
111.156,88.12916,0.2339767,0.9898543,3.234749
111.2061,85.84048,0.2378788,0.9900191,3.234749
111.2549,84.0604,0.2378788,0.9896896,3.234749
111.3046,82.02603,0.2378788,0.9798071,3.234749
111.3552,80.24594,0.232676,0.9799718,3.234749
111.4055,79.73734,0.2287734,0.9798071,3.234749
111.4563,76.68578,0.1793437,0.9798071,3.234749
111.5046,74.26996,0.2209687,0.9796425,3.234749
111.5551,86.98483,0.2430822,0.9801366,3.234749
111.6052,108.8544,0.2756017,0.9798071,3.234749
111.6558,107.9643,0.3718602,0.9798071,3.234749
111.7059,106.3114,0.4889309,0.9799718,3.22829
111.7542,106.6929,0.5786853,0.9798071,3.234749
111.8049,106.6929,0.6905528,0.9798071,3.234749
111.8549,99.95398,0.8102254,0.9798071,3.234749
111.9064,98.55534,0.9285968,0.9799718,3.22829
111.9554,97.02956,1.084692,0.9799718,3.234749
112.0046,94.48659,1.208266,0.9798071,3.22829
112.0547,90.67213,1.29802,0.9799718,3.234749
112.105,88.25631,1.372165,0.9799718,3.22829
112.1552,86.34908,1.425498,0.9798071,3.22829
112.2061,84.3147,1.448912,0.9798071,3.22829
112.2547,82.02603,1.460619,0.9798071,3.22829
112.3044,81.00883,1.481431,0.9798071,3.22829
112.3554,79.22876,1.500943,0.9799718,3.22829
112.4061,77.70296,1.510049,0.9799718,3.22829
112.456,75.28716,1.504845,0.9798071,3.22829
112.5049,97.66531,1.502244,0.9798071,3.22829
112.555,110.253,1.481431,0.9799718,3.22829
112.6053,106.1843,1.467123,0.9798071,3.22829
112.6559,104.7856,1.451513,0.9798071,3.22829
112.7054,104.9128,1.421595,0.9798071,3.22829
112.7547,100.5897,1.408587,0.9798071,3.22829
112.8051,97.15671,1.383873,0.9798071,3.22829
112.8544,96.52097,1.344849,0.9798071,3.22829
112.9056,94.2323,1.314931,0.9798071,3.22183
112.9556,90.16354,1.285013,0.9799718,3.22183
113.005,87.87486,1.256395,0.9798071,3.22183
113.0547,84.82329,1.221274,0.9798071,3.22829
113.1043,83.67896,1.175746,0.9798071,3.22183
113.1564,81.89888,1.127617,0.9798071,3.22829
113.2063,79.86449,1.023555,0.9799718,3.22829
113.2552,77.32152,0.9689215,0.9796425,3.22183
113.3049,84.0604,0.8778664,0.9798071,3.22829
113.3554,108.6001,0.7985181,0.9798071,3.22183
113.4062,109.9987,0.743885,0.9798071,3.22829
113.4564,105.0399,0.7074634,0.9798071,3.22829
113.5046,104.4042,0.6567325,0.9798071,3.22183
113.5555,103.0055,0.6060016,0.9799718,3.22183
113.6051,95.24948,0.5747827,0.9798071,3.22183
113.6553,95.37663,0.5370599,0.9798071,3.22183
113.7054,95.63092,0.5071417,0.9796425,3.22183
113.7547,92.57936,0.4889309,0.9799718,3.22183
113.8056,88.12916,0.4564113,0.9798071,3.22183
113.8555,85.96764,0.4382,0.9799718,3.22183
113.9053,83.67896,0.4264932,0.9798071,3.215371
113.9547,81.64457,0.4069811,0.9799718,3.22183
114.0044,79.61021,0.3666569,0.9799718,3.22183
114.0555,78.59301,0.3341373,0.9798071,3.22183
114.1055,76.43149,0.2925119,0.9799718,3.22183
114.1548,74.90571,0.3107232,0.9798071,3.215371
114.2053,80.11879,0.2899104,0.9798071,3.22183
114.2551,95.12233,0.261293,0.9798071,3.215371
114.3058,105.93,0.2625942,0.9798071,3.22183
114.3544,105.5485,0.267797,0.9798071,3.22183
114.4047,106.1843,0.2534883,0.9799718,3.215371
114.4551,104.9128,0.2482855,0.9798071,3.215371
114.5044,98.30104,0.2417814,0.9799718,3.215371
114.5554,96.64812,0.2105626,0.9799718,3.215371
114.6055,95.24948,0.213164,0.9799718,3.215371
114.6554,91.30788,0.2144647,0.9798071,3.215371
114.7053,88.25631,0.2157654,0.9798071,3.215371
114.7553,84.569,0.2118633,0.9798071,3.215371
114.8059,82.91606,0.2183673,0.9798071,3.215371
114.8552,80.11879,0.2378788,0.9798071,3.215371
114.9046,78.72016,0.2469848,0.9799718,3.215371
114.9551,77.19438,0.3003166,0.9799718,3.215371
115.0045,75.28716,0.335438,0.9799718,3.215371
115.0559,73.12562,0.4590127,0.9799718,3.215371
115.1045,79.48306,0.5526693,0.9798071,3.208912
115.1548,95.24948,0.6437244,0.9798071,3.215371
115.2052,104.7856,0.7933152,0.9798071,3.215371
115.2553,103.5141,0.9220927,0.9798071,3.215371
115.306,105.0399,1.061277,0.9798071,3.215371
115.3556,104.7856,1.179649,0.9799718,3.208912
115.4045,103.0055,1.262899,0.9798071,3.208912
115.4548,99.44539,1.329239,0.9798071,3.215371
115.5049,96.77527,1.39688,0.9798071,3.208912
115.556,93.978,1.430701,0.9799718,3.208912
115.6046,90.54498,1.454115,0.9798071,3.208912
115.6551,88.12916,1.460619,0.9798071,3.208912
115.7052,85.58618,1.467123,0.9798071,3.208912
115.7547,83.55181,1.471025,0.9799718,3.208912
115.8062,82.53461,1.468424,0.9798071,3.208912
115.8556,79.99165,1.454115,0.9798071,3.208912
115.9052,77.83012,1.437205,0.9798071,3.208912
115.9552,80.11879,1.403384,0.9798071,3.208912
116.0045,105.4214,1.352654,0.9798071,3.208912
116.0557,109.1087,1.29802,0.9799718,3.208912
116.1055,105.93,1.232981,0.9798071,3.208912
116.1553,105.2942,1.161438,0.9798071,3.208912
116.2046,105.1671,1.010547,0.9798071,3.208912
116.2545,98.80965,0.8791671,0.9798071,3.208912
116.3064,97.53816,0.7764046,0.9798071,3.208912
116.3556,96.90242,0.7100648,0.9799718,3.208912
116.4049,95.50377,0.6489277,0.9798071,3.208912
116.4545,92.07076,0.6007988,0.9798071,3.202453
116.5045,88.7649,0.5682787,0.9798071,3.208912
116.5562,86.22193,0.5292552,0.9799718,3.208912
116.605,84.69615,0.5019389,0.9798071,3.208912
116.6555,83.04321,0.4811262,0.9798071,3.202453
116.7053,80.37309,0.4160871,0.9798071,3.208912
116.7551,78.59301,0.4173878,0.9799718,3.208912
116.8061,90.67213,0.3874696,0.9798071,3.208912
116.8552,109.9987,0.35495,0.9798071,3.202453
116.9047,109.8716,0.3445434,0.9799718,3.202453
116.9548,107.2015,0.3432427,0.9799718,3.208912
117.0047,107.9643,0.32243,0.9798071,3.202453
117.056,105.0399,0.3120239,0.9798071,3.202453
117.1046,99.95398,0.2912112,0.9798071,3.202453
117.155,99.69969,0.2664963,0.9799718,3.202453
117.2056,98.04675,0.2534883,0.9799718,3.208912
117.2556,94.10515,0.2430822,0.9798071,3.202453
117.3062,91.43503,0.2378788,0.9898543,3.202453
117.3554,88.5106,0.2365782,0.9896896,3.202453
117.4047,86.60338,0.23918,0.9898543,3.202453
117.4546,84.82329,0.2469848,0.9900191,3.202453
117.5052,83.93326,0.2469848,0.9898543,3.202453
117.5561,80.88168,0.23918,0.9898543,3.195994
117.6047,79.3559,0.2209687,0.9898543,3.202453
117.6549,78.33871,0.2456836,0.9896896,3.202453
117.7053,102.8784,0.1949532,0.9896896,3.202453
117.7554,111.2702,0.1975546,0.9896896,3.202453
117.8067,108.3458,0.200156,0.9898543,3.202453
117.8547,108.2186,0.2040586,0.9898543,3.195994
117.9051,108.6001,0.200156,0.9898543,3.202453
117.9557,105.2942,0.200156,0.9898543,3.202453
118.0051,101.3526,0.1949532,0.9896896,3.195994
118.0556,99.95398,0.1936525,0.9896896,3.202453
118.1053,97.02956,0.1988553,0.9896896,3.195994
118.1551,93.34225,0.200156,0.9898543,3.195994
118.2046,91.56216,0.1988553,0.9898543,3.195994
118.2556,88.89205,0.1975546,0.9898543,3.202453
118.3066,86.85767,0.1962539,0.9898543,3.202453
118.3551,83.80611,0.1988553,0.9898543,3.195994
118.4047,83.67896,0.1949532,0.9896896,3.195994
118.4547,81.26313,0.1936525,0.9898543,3.195994
118.5048,79.22876,0.1923513,0.9896896,3.195994
118.5556,77.95727,0.2560902,0.9898543,3.202453
118.6057,97.02956,0.3029185,0.9898543,3.195994
118.6557,111.6517,0.3744616,0.9898543,3.195994
118.7052,108.7272,0.4798255,0.9898543,3.195994
118.7553,107.2015,0.5617752,0.9898543,3.195994
118.8061,109.6173,0.6723419,0.9898543,3.195994
118.8555,107.4557,0.7764046,0.9898543,3.195994
118.9054,101.6069,0.8843704,0.9896896,3.195994
118.9547,100.2083,0.9819291,0.9898543,3.195994
119.0049,98.30104,1.126317,0.9898543,3.202453
119.0556,95.12233,1.225176,0.9896896,3.195994
119.1046,92.19792,1.318833,0.9900191,3.195994
119.1552,90.54498,1.382571,0.9898543,3.195994
119.2053,88.00201,1.435904,0.9898543,3.195994
119.2552,86.60338,1.476228,0.9896896,3.195994
119.3067,85.07759,1.500943,0.9898543,3.195994
119.3555,82.53461,1.538666,0.9900191,3.189535
119.4052,81.00883,1.56078,0.9898543,3.195994
119.4555,82.91606,1.56208,0.9898543,3.195994
119.5054,109.6173,1.558178,0.9898543,3.189535
119.5564,109.1087,1.550373,0.9900191,3.195994
119.6046,107.5829,1.541268,0.9896896,3.189535
119.655,106.9472,1.489236,0.9898543,3.189535
119.7049,106.4386,1.472326,0.9898543,3.189535
119.7549,99.82683,1.452814,0.9900191,3.189535
119.8057,99.06393,1.4294,0.9898543,3.195994
119.8557,97.79247,1.409888,0.9898543,3.195994
119.9047,95.75809,1.374767,0.9898543,3.189535
119.9546,92.32506,1.350052,0.9898543,3.189535
120.0046,89.5278,1.329239,0.9898543,3.189535
120.0562,87.74771,1.307126,0.9898543,3.189535
120.1054,85.96764,1.287614,0.9896896,3.189535
120.1557,83.80611,1.262899,0.9898543,3.189535
120.2056,81.64457,1.251192,0.9898543,3.189535
120.2547,89.2735,1.212168,0.9896896,3.189535
120.3057,110.6345,1.171844,0.9898543,3.189535
120.3549,108.3458,1.127617,0.9898543,3.189535
120.4047,107.5829,1.058676,0.9898543,3.189535
120.4547,107.0743,0.9741244,0.9898543,3.189535
120.5052,105.1671,0.9090852,0.9898543,3.189535
120.5559,99.82683,0.8388428,0.9898543,3.189535
120.6053,99.82683,0.7855105,0.9898543,3.183075
120.6553,99.69969,0.7555923,0.9896896,3.189535
120.7053,97.28386,0.7334789,0.9898543,3.189535
120.7551,92.57936,0.6970568,0.9900191,3.183075
120.8063,90.41783,0.6671386,0.9898543,3.189535
120.8554,87.74771,0.6307169,0.9898543,3.183075
120.9046,86.60338,0.5890915,0.9898543,3.183075
120.9552,84.82329,0.5591733,0.9898543,3.183075
121.0052,82.53461,0.499337,0.9900191,3.183075
121.0563,80.11879,0.4941342,0.9898543,3.189535
121.1055,87.49342,0.451208,0.9898543,3.183075
121.1553,112.1602,0.4160871,0.9898543,3.183075
121.2049,109.7444,0.3822663,0.9898543,3.183075
121.2557,107.4557,0.3692583,0.9898543,3.183075
121.3066,107.5829,0.3328366,0.9898543,3.183075
121.3547,107.9643,0.2860083,0.9900191,3.183075
121.4055,102.6241,0.261293,0.9898543,3.183075
121.4547,102.1155,0.2352774,0.9896896,3.183075
121.5054,100.2083,0.213164,0.9898543,3.183075
121.5567,96.77527,0.1793437,0.9898543,3.183075
121.6049,93.46941,0.1702383,0.9896896,3.183075
121.6547,90.03638,0.165035,0.9898543,3.183075
121.7055,87.49342,0.1533277,0.9896896,3.176616
121.7547,86.60338,0.1416209,0.9900191,3.183075
121.806,83.29751,0.1429216,0.9898543,3.183075
121.8548,81.77173,0.1377183,0.9896896,3.183075
121.9057,81.00883,0.1299136,0.9898543,3.183075
121.9556,76.55863,0.1247107,0.9898543,3.183075
122.0049,79.48306,0.1312143,0.9898543,3.176616
122.0562,105.2942,0.1273122,0.9900191,3.183075
122.1055,108.4729,0.1286129,0.9898543,3.176616
122.1553,106.82,0.1286129,0.9898543,3.176616
122.2049,107.4557,0.1338162,0.9898543,3.176616
122.2555,108.8544,0.1312143,0.9898543,3.183075
122.3061,104.1499,0.1312143,0.9898543,3.183075
122.3547,100.9712,0.1273122,0.9898543,3.176616
122.4055,100.2083,0.1273122,0.9898543,3.176616
122.4547,98.55534,0.1286129,0.9896896,3.176616
122.5052,94.86804,0.1325154,0.9898543,3.176616
122.5559,91.81647,0.1429216,0.9900191,3.176616
122.6048,88.89205,0.1884492,0.9898543,3.176616
122.6552,86.34908,0.2664963,0.9898543,3.176616
122.7052,85.20473,0.3783642,0.9900191,3.176616
122.7555,82.78893,0.4967356,0.9898543,3.176616
122.8067,81.51743,0.6034002,0.9898543,3.176616
122.8552,78.97446,0.7477877,0.9898543,3.176616
122.9055,77.32152,0.9546128,0.9898543,3.176616
122.9557,90.54498,1.084692,0.9898543,3.176616
123.0057,109.1087,1.193958,0.9898543,3.176616
123.0557,107.8372,1.295419,0.9896896,3.176616
123.1052,106.82,1.369564,0.9898543,3.176616
123.1549,108.6001,1.413791,0.9898543,3.176616
123.2057,107.2015,1.46192,0.9898543,3.176616
123.2559,100.5897,1.486634,0.9896896,3.176616
123.3067,100.2083,1.513951,0.9898543,3.176616
123.3559,99.06393,1.549072,0.9898543,3.176616
123.4049,97.28386,1.554276,0.9900191,3.176616
123.4559,92.96081,1.551674,0.9900191,3.176616
123.5049,90.54498,1.547772,0.9898543,3.170157
123.5559,87.49342,1.541268,0.9898543,3.176616
123.6048,86.73053,1.515252,0.9898543,3.170157
123.6557,84.0604,1.472326,0.9898543,3.170157
123.7054,82.02603,1.458017,0.9898543,3.170157
123.7553,83.67896,1.426798,0.9898543,3.170157
123.8069,107.4557,1.383873,0.9900191,3.170157
123.8557,109.6173,1.351353,0.9898543,3.176616
123.9057,107.5829,1.333142,0.9898543,3.170157
123.9559,107.2015,1.295419,0.9898543,3.170157
124.0048,106.3114,1.257696,0.9900191,3.170157
124.0561,99.57254,1.219973,0.9896896,3.170157
124.1059,98.6825,1.187454,0.9900191,3.170157
124.1549,98.6825,1.153633,0.9900191,3.170157
124.2058,93.59654,1.112008,0.9898543,3.163698
124.2551,90.54498,1.062578,0.9898543,3.163698
124.3062,89.0192,1.020953,0.9898543,3.170157
124.3558,85.96764,0.9819291,0.9900191,3.163698
124.406,84.82329,0.9364015,0.9898543,3.170157
124.4556,83.29751,0.9064834,0.9900191,3.170157
124.5049,80.62739,0.8505496,0.9896896,3.170157
124.5569,78.59301,0.8271355,0.9898543,3.170157
124.6055,85.71333,0.8037214,0.9898543,3.170157
124.6559,110.7616,0.7659985,0.9900191,3.170157
124.7059,108.7272,0.737381,0.9898543,3.170157
124.7554,107.5829,0.7243735,0.9898543,3.170157
124.8059,107.0743,0.6931546,0.9898543,3.163698
124.855,106.9472,0.6580332,0.9898543,3.170157
124.9058,99.95398,0.6229118,0.9898543,3.163698
124.9558,98.6825,0.5968962,0.9900191,3.163698
125.0059,98.6825,0.5825875,0.9898543,3.163698
125.0567,94.99519,0.5760834,0.9896896,3.163698
125.1049,91.81647,0.5682787,0.9898543,3.170157
125.1557,88.63776,0.5500679,0.9898543,3.170157
125.2056,86.60338,0.5357592,0.9898543,3.163698
125.2554,84.0604,0.5162476,0.9898543,3.163698
125.306,82.40748,0.4941342,0.9898543,3.163698
125.3557,80.88168,0.4694189,0.9898543,3.163698
125.4057,79.99165,0.4368993,0.9898543,3.163698
125.4559,76.17719,0.3939736,0.9898543,3.163698
125.5057,76.17719,0.4186884,0.9898543,3.163698
125.556,104.4042,0.383567,0.9898543,3.163698
125.6049,112.5417,0.3640555,0.9898543,3.163698
125.6551,108.3458,0.3640555,0.9896896,3.163698
125.7055,107.8372,0.3640555,0.9898543,3.163698
125.7555,109.1087,0.35495,0.9898543,3.157239
125.8063,105.93,0.3471453,0.9898543,3.163698
125.855,99.95398,0.3315359,0.9900191,3.163698
125.905,99.06393,0.3120239,0.9898543,3.163698
125.9556,97.15671,0.3081213,0.9898543,3.163698
