t_sec,abp_mmHg,resp_arbunit,spo2_unitless,scon_muS
0,106.0571,-0.0718217,0.9896896,3.712727
0.04965735,108.4729,-0.0718217,0.9896896,3.712727
0.1010187,109.6173,-0.06884526,0.9898543,3.719186
0.1515173,96.90242,-0.0718217,0.9898543,3.719186
0.1993916,95.63092,-0.0718217,0.9896896,3.719186
0.2503913,84.95044,-0.06884526,0.9896896,3.719186
0.2997429,83.80611,-0.0718217,0.9898543,3.719186
0.3506505,103.1327,-0.0718217,0.9898543,3.719186
0.4003906,144.5831,-0.06884526,0.9896896,3.719186
0.4503897,143.6931,-0.0718217,0.9896896,3.719186
0.5003914,125.638,-0.0718217,0.9898543,3.719186
0.5504853,118.2634,-0.06884526,0.9898543,3.719186
0.6014156,110.253,-0.06884526,0.9896896,3.725645
0.6515568,107.71,-0.06884526,0.9896896,3.725645
0.7001842,107.5829,-0.0718217,0.9896896,3.719186
0.7504079,105.93,-0.06884526,0.9898543,3.719186
0.8000308,91.43503,-0.06884526,0.9896896,3.725645
0.8511829,86.73053,-0.0718217,0.9896896,3.719186
0.9011853,85.71333,-0.06884526,0.9898543,3.719186
0.949865,92.57936,-0.0718217,0.9896896,3.719186
0.9999573,139.7515,-0.06884526,0.9896896,3.725645
1.050405,145.6003,-0.06884526,0.9896896,3.719186
1.101403,139.7515,-0.0718217,0.9898543,3.719186
1.151403,122.0779,-0.0718217,0.9898543,3.719186
1.199436,115.4661,-0.06884526,0.9896896,3.719186
1.25051,110.253,-0.06884526,0.9898543,3.719186
1.300401,109.2358,-0.0718217,0.9898543,3.725645
1.350682,107.8372,-0.06884526,0.9898543,3.719186
1.401549,94.35944,-0.0718217,0.9896896,3.725645
1.450279,89.90925,-0.06884526,0.9896896,3.719186
1.500146,85.96764,-0.06884526,0.9898543,3.719186
1.54989,88.38345,-0.06884526,0.9896896,3.719186
1.601179,135.8099,-0.06884526,0.9896896,3.719186
1.650401,148.7791,-0.06586661,0.9898543,3.725645
1.700259,135.047,-0.0718217,0.9898543,3.719186
1.750107,126.1466,-0.0718217,0.9896896,3.725645
1.799677,115.4661,-0.06884526,0.9896896,3.719186
1.851672,110.7616,-0.06884526,0.9896896,3.719186
1.900888,110.7616,-0.0718217,0.9898543,3.719186
1.950127,110.3802,-0.0718217,0.9896896,3.719186
2.000476,95.37663,-0.06884526,0.9896896,3.719186
2.050261,89.14634,-0.06884526,0.9898543,3.719186
2.101104,84.82329,-0.06884526,0.9898543,3.719186
2.150675,85.33189,-0.0718217,0.9898543,3.719186
2.200099,91.56216,-0.06586661,0.9896896,3.719186
2.249864,147.7619,-0.0718217,0.9898543,3.712727
2.299776,143.4388,-0.06884526,0.9896896,3.712727
2.350769,128.6896,-0.0718217,0.9898543,3.719186
2.401091,116.6105,-0.06586661,0.9896896,3.712727
2.449597,111.2702,-0.06884526,0.9896896,3.719186
2.499504,110.3802,-0.06884526,0.9896896,3.719186
2.550127,110.3802,-0.0718217,0.9896896,3.712727
2.60134,100.2083,-0.06884526,0.9898543,3.719186
2.650673,91.43503,-0.06884526,0.9896896,3.719186
2.700668,87.62056,-0.0718217,0.9896896,3.712727
2.749671,86.09478,-0.0718217,0.9898543,3.719186
2.799423,128.181,-0.0718217,0.9896896,3.712727
2.851672,145.7275,-0.06884526,0.9898543,3.712727
2.901398,137.9714,-0.06884526,0.9898543,3.712727
2.949697,118.5177,-0.0718217,0.9896896,3.719186
3.000626,108.4729,-0.0718217,0.9896896,3.712727
3.049715,107.71,-0.0718217,0.9898543,3.712727
3.101674,107.71,-0.06884526,0.9898543,3.712727
3.151495,109.363,-0.06884526,0.9896896,3.719186
3.19997,98.1739,-0.06586661,0.9896896,3.712727
3.249892,89.2735,-0.06884526,0.989525,3.719186
3.299621,85.33189,-0.0718217,0.9896896,3.712727
3.350882,96.26666,-0.06884526,0.9898543,3.712727
3.401047,145.7275,-0.07480036,0.9896896,3.712727
3.450665,143.9474,-0.06884526,0.9896896,3.712727
3.500131,126.528,-0.06884526,0.9898543,3.719186
3.549443,115.8476,-0.0718217,0.9898543,3.712727
3.60044,106.0571,-0.06884526,0.9896896,3.712727
3.650492,106.0571,-0.06884526,0.9896896,3.712727
3.700421,107.5829,-0.06884526,0.9896896,3.712727
3.750638,108.0915,-0.06884526,0.9896896,3.712727
3.80034,93.34225,-0.06884526,0.9896896,3.712727
3.850925,89.78209,-0.06586661,0.9896896,3.712727
3.90067,81.89888,-0.06884526,0.9898543,3.712727
3.950409,125.0023,-0.06884526,0.9898543,3.706268
4.00036,145.4732,-0.06884526,0.9896896,3.706268
4.050141,136.9542,-0.06884526,0.9896896,3.706268
4.100539,128.5624,-0.0718217,0.9898543,3.706268
4.151621,112.796,-0.06884526,0.9896896,3.706268
4.200369,110.6345,-0.06884526,0.9898543,3.706268
4.250372,109.6173,-0.0718217,0.9896896,3.706268
4.300076,109.363,-0.06884526,0.9898543,3.706268
4.351119,98.55534,-0.06884526,0.9896896,3.706268
4.40112,92.07076,-0.06884526,0.9896896,3.706268
4.450212,87.11198,-0.06884526,0.9898543,3.706268
4.499619,94.61374,-0.06884526,0.9898543,3.699808
4.550614,132.1226,-0.0718217,0.9898543,3.706268
4.601247,148.3976,-0.06586661,0.9896896,3.706268
4.65115,140.3873,-0.06884526,0.9898543,3.699808
4.699663,124.4937,-0.0718217,0.9896896,3.699808
4.749661,114.9575,-0.0718217,0.9898543,3.699808
4.79966,113.0503,-0.06884526,0.9896896,3.699808
4.850615,113.8132,-0.0718217,0.9896896,3.699808
4.900614,111.7788,-0.07480036,0.9898543,3.699808
4.950241,99.06393,-0.0718217,0.9896896,3.693349
5.000258,92.96081,-0.06884526,0.9896896,3.693349
5.050128,88.7649,-0.06884526,0.9896896,3.693349
5.100995,99.06393,-0.0718217,0.9898543,3.693349
5.150753,144.8374,-0.06884526,0.9896896,3.693349
5.19953,148.6519,-0.0718217,0.9896896,3.693349
5.250214,131.4868,-0.0718217,0.9898543,3.693349
5.300017,121.8235,-0.06884526,0.9898543,3.693349
5.351114,115.0847,-0.06884526,0.9898543,3.693349
5.400488,116.4833,-0.0718217,0.9896896,3.693349
5.449623,114.7032,-0.0718217,0.9896896,3.693349
5.500655,114.8304,-0.06884526,0.9896896,3.693349
5.55037,98.42819,-0.06884526,0.9898543,3.68689
5.601074,94.10515,-0.06884526,0.9898543,3.68689
5.650852,86.85767,-0.0718217,0.9896896,3.68689
5.700244,119.5349,-0.06586661,0.9898543,3.68689
5.75024,148.2705,-0.0718217,0.9896896,3.68689
5.799778,146.8718,-0.06884526,0.9896896,3.68689
5.850579,133.7755,-0.06884526,0.9898543,3.68689
5.901611,124.1122,-0.0718217,0.9898543,3.68689
5.949858,118.3905,-0.06884526,0.9896896,3.68689
6.000359,117.3734,-0.06884526,0.9896896,3.68689
6.050428,115.0847,-0.06884526,0.9898543,3.68689
6.100652,109.363,-0.06884526,0.9898543,3.680431
6.151606,96.01237,-0.06884526,0.9896896,3.680431
6.200394,92.96081,-0.06884526,0.989525,3.68689
6.250314,88.63776,-0.06884526,0.9896896,3.680431
6.300196,92.83366,-0.0718217,0.9898543,3.680431
6.350897,144.2017,-0.06586661,0.9896896,3.680431
6.401027,147.6347,-0.0718217,0.9896896,3.680431
6.450086,129.9611,-0.06884526,0.9898543,3.680431
6.49965,118.5177,-0.0718217,0.9898543,3.680431
6.549872,113.1774,-0.0718217,0.9898543,3.680431
6.600898,111.906,-0.06884526,0.9898543,3.680431
6.650881,111.6517,-0.0718217,0.9896896,3.680431
6.700648,109.7444,-0.06884526,0.9898543,3.680431
6.749651,97.41101,-0.0718217,0.9898543,3.680431
6.800195,91.18073,-0.06884526,0.9896896,3.680431
6.851044,88.38345,-0.06884526,0.9898543,3.673972
6.901318,93.08795,-0.06884526,0.9896896,3.680431
6.950116,119.5349,-0.0718217,0.9898543,3.680431
6.999613,145.7275,-0.0718217,0.9896896,3.673972
7.050598,137.2085,-0.06884526,0.9898543,3.680431
7.100525,123.2222,-0.06884526,0.9898543,3.680431
7.151118,112.2874,-0.0718217,0.9896896,3.680431
7.199872,110.253,-0.0718217,0.989525,3.680431
7.249853,110.253,-0.0718217,0.9896896,3.673972
7.300374,109.6173,-0.06884526,0.9898543,3.680431
7.351128,96.90242,-0.06884526,0.9898543,3.673972
7.400745,91.68932,-0.06884526,0.9896896,3.673972
7.450333,86.85767,-0.06884526,0.9896896,3.680431
7.499999,88.38345,-0.06884526,0.9900191,3.673972
7.549963,114.5761,-0.0718217,0.9898543,3.673972
7.601668,147.889,-0.06884526,0.9896896,3.673972
7.650765,137.8443,-0.0718217,0.9896896,3.673972
7.700185,123.3493,-0.06884526,0.9900191,3.673972
7.749848,114.5761,-0.06586661,0.9896896,3.673972
7.799891,111.5245,-0.06884526,0.9896896,3.667513
7.85097,110.6345,-0.06884526,0.9898543,3.673972
7.901645,110.6345,-0.06884526,0.9896896,3.673972
7.950466,96.90242,-0.06884526,0.9898543,3.673972
8.000343,92.57936,-0.0718217,0.9896896,3.673972
8.050457,85.45904,-0.06586661,0.9898543,3.673972
8.100516,85.45904,-0.0718217,0.9898543,3.667513
8.151325,90.67213,-0.06884526,0.9898543,3.673972
8.200154,129.4525,-0.0718217,0.9898543,3.667513
8.249599,142.5488,-0.0718217,0.9896896,3.667513
8.299726,135.5556,-0.06884526,0.9898543,3.667513
8.351658,121.9507,-0.06884526,0.9896896,3.667513
8.401613,113.4317,-0.06884526,0.9898543,3.667513
8.449542,111.1431,-0.0718217,0.9896896,3.667513
8.499764,111.1431,-0.0718217,0.9898543,3.667513
8.54961,109.6173,-0.06884526,0.9896896,3.667513
8.600883,92.96081,-0.06884526,0.9896896,3.661053
8.650881,89.90925,-0.06884526,0.9896896,3.667513
8.70056,85.45904,-0.06884526,0.9898543,3.661053
8.750511,89.0192,-0.0718217,0.9898543,3.661053
8.8002,142.0402,-0.06884526,0.9896896,3.661053
8.850842,145.9818,-0.0718217,0.9898543,3.661053
8.901665,141.913,-0.0718217,0.9896896,3.661053
8.949826,126.6552,-0.0718217,0.9898543,3.661053
8.99988,115.9747,-0.06884526,0.9898543,3.661053
9.049887,110.7616,-0.06586661,0.9896896,3.661053
9.100991,110.6345,-0.0718217,0.9896896,3.661053
9.151009,110.3802,-0.06884526,0.9896896,3.661053
9.199753,102.2427,-0.06884526,0.9896896,3.661053
9.249587,91.18073,-0.0718217,0.9896896,3.661053
9.299565,88.7649,-0.06884526,0.9898543,3.654594
9.350588,84.44184,-0.06884526,0.9896896,3.654594
9.401629,90.67213,-0.06884526,0.9896896,3.654594
9.45008,130.9782,-0.06884526,0.9896896,3.654594
9.499589,142.5488,-0.0718217,0.9896896,3.661053
9.550504,130.9782,-0.0718217,0.9898543,3.654594
9.601098,118.772,-0.06884526,0.9896896,3.654594
9.651309,108.8544,-0.06884526,0.9896896,3.654594
9.699853,107.5829,-0.06884526,0.9896896,3.648135
9.749572,108.4729,-0.0718217,0.9898543,3.654594
9.800463,108.0915,-0.06884526,0.9896896,3.654594
9.85146,93.72369,-0.06884526,0.9896896,3.654594
9.900964,88.12916,-0.0718217,0.9896896,3.648135
9.950461,84.18755,-0.06884526,0.9896896,3.648135
9.999833,80.24594,-0.06884526,0.9898543,3.648135
10.04984,98.55534,-0.06884526,0.9896896,3.648135
10.10056,141.7859,-0.0718217,0.9898543,3.648135
10.15147,136.9542,-0.06884526,0.9896896,3.648135
10.19988,124.748,-0.06884526,0.989525,3.648135
10.24995,111.3974,-0.06586661,0.9896896,3.641676
10.30053,103.5141,-0.0718217,0.9898543,3.648135
10.35108,103.2598,-0.0718217,0.9898543,3.641676
10.40123,106.0571,-0.06884526,0.9896896,3.641676
10.45007,101.8612,-0.06884526,0.9896896,3.641676
10.49967,88.89205,-0.06884526,0.9900191,3.641676
10.55058,85.96764,-0.06884526,0.9898543,3.641676
10.60063,80.75454,-0.06884526,0.9896896,3.641676
10.65058,97.28386,-0.06884526,0.999737,3.641676
10.70055,142.1673,-0.0718217,0.999737,3.641676
10.7499,140.7687,-0.06884526,0.999737,3.641676
10.80035,130.5968,-0.06884526,0.999737,3.635217
10.85163,107.4557,-0.06884526,0.999737,3.641676
10.90143,104.277,-0.06884526,0.9999016,3.635217
10.95044,105.93,-0.0718217,0.9999016,3.635217
10.99955,105.6757,-0.06884526,0.9995722,3.635217
11.05055,102.1155,-0.06884526,0.9999016,3.635217
11.10159,90.29069,-0.06884526,0.999737,3.635217
11.15062,84.95044,-0.0718217,0.9999016,3.635217
11.20063,83.04321,-0.06884526,0.999737,3.635217
11.25056,82.02603,-0.0718217,0.999737,3.635217
11.3006,133.1398,-0.0718217,0.999737,3.635217
11.35135,143.0574,-0.06884526,0.999737,3.635217
11.40141,129.5796,-0.06884526,0.9995722,3.635217
11.44959,118.0091,-0.0718217,0.999737,3.635217
11.49961,106.1843,-0.0718217,0.999737,3.635217
11.55005,104.6585,-0.06884526,0.9995722,3.628757
11.60087,104.9128,-0.06586661,0.999737,3.635217
11.65063,105.6757,-0.0718217,0.9999016,3.628757
11.70005,94.86804,-0.06884526,0.9999016,3.628757
11.75015,86.85767,-0.06884526,0.999737,3.628757
11.8003,84.18755,-0.0718217,0.999737,3.628757
11.85158,87.36626,-0.0718217,0.999737,3.628757
11.90108,124.6208,-0.06884526,0.999737,3.628757
11.95044,145.346,-0.0718217,0.999737,3.628757
12.00033,140.5144,-0.06884526,0.9898543,3.622298
12.05032,119.2806,-0.06884526,0.9898543,3.622298
12.1012,110.1259,-0.0718217,0.9898543,3.622298
12.15166,108.4729,-0.06884526,0.9896896,3.622298
12.20035,107.8372,-0.06884526,0.9896896,3.622298
12.25035,107.2015,-0.0718217,0.9898543,3.622298
12.30008,104.0227,-0.0718217,0.9898543,3.622298
12.35112,88.38345,-0.0718217,0.9896896,3.622298
12.401,83.55181,-0.0718217,0.9896896,3.622298
12.44968,82.28033,-0.0718217,0.9896896,3.622298
12.50035,126.2737,-0.06884526,0.9896896,3.615839
12.54983,148.7791,-0.06884526,0.9900191,3.622298
12.60072,144.9646,-0.0718217,0.9896896,3.615839
12.65056,119.7892,-0.0718217,0.9896896,3.615839
12.69995,111.906,-0.0718217,0.9898543,3.615839
12.74979,107.4557,-0.06884526,0.9896896,3.622298
12.80071,107.3286,-0.06884526,0.9898543,3.615839
12.85069,106.5657,-0.06884526,0.9896896,3.615839
12.90171,93.08795,-0.06884526,0.9898543,3.615839
12.95005,89.14634,-0.0718217,0.9898543,3.615839
13.00065,82.28033,-0.06586661,0.9896896,3.615839
13.05046,79.99165,-0.06884526,0.9896896,3.60938
13.10139,117.6276,-0.0718217,0.9898543,3.615839
13.15092,146.8718,-0.06884526,0.9898543,3.615839
13.19986,145.346,-0.06586661,0.9896896,3.615839
13.25034,117.2462,-0.06884526,0.9896896,3.615839
13.30004,107.2015,-0.06884526,0.9900191,3.615839
13.35091,103.8956,-0.06884526,0.9898543,3.615839
13.40058,103.5141,-0.0718217,0.9898543,3.60938
13.44983,103.6413,-0.06884526,0.9898543,3.60938
13.49969,100.0811,-0.06884526,0.9896896,3.60938
13.55065,86.22193,-0.0718217,0.9896896,3.602921
13.60058,83.93326,-0.0718217,0.9896896,3.583544
13.65152,80.75454,-0.06884526,0.9896896,3.602921
13.70032,111.3974,-0.0718217,0.9896896,3.602921
13.75002,140.7687,-0.06884526,0.9896896,3.615839
13.80011,134.9198,-0.0718217,0.9898543,3.60938
13.8517,113.686,-0.0718217,0.9896896,3.60938
13.90169,100.0811,-0.0718217,0.9896896,3.60938
13.95055,101.8612,-0.0718217,0.9896896,3.602921
13.99991,104.277,-0.06884526,0.9896896,3.602921
14.04994,104.0227,-0.06884526,0.9898543,3.602921
14.10081,91.30788,-0.06884526,0.9898543,3.602921
14.15181,89.65494,-0.0718217,0.9896896,3.602921
14.19998,86.09478,-0.0718217,0.9896896,3.602921
14.24985,80.75454,-0.06884526,0.9896896,3.602921
14.29986,119.0263,-0.06884526,0.9898543,3.602921
14.35103,142.6759,-0.07480036,0.999737,3.596462
14.40127,125.5108,-0.06884526,0.999737,3.602921
14.45011,116.7376,-0.06884526,0.999737,3.602921
14.50032,99.82683,-0.0718217,0.9999016,3.596462
14.55031,100.5897,-0.0718217,0.999737,3.596462
14.60105,103.5141,-0.06884526,0.999737,3.596462
14.65088,103.1327,-0.0718217,0.9995722,3.596462
14.70081,89.65494,-0.06884526,0.999737,3.596462
14.74994,86.60338,-0.06884526,0.999737,3.596462
14.80083,81.00883,-0.06884526,0.9999016,3.602921
14.85098,101.6069,-0.06884526,0.9995722,3.602921
14.90119,143.566,-0.06884526,0.999737,3.596462
14.95053,142.4216,-0.06884526,0.9999016,3.596462
14.99963,126.7823,-0.06884526,0.999737,3.590003
15.05069,111.906,-0.06884526,0.999737,3.596462
15.10062,104.6585,-0.06884526,0.999737,3.596462
15.1507,104.6585,-0.06586661,0.999737,3.596462
15.20044,105.1671,-0.06884526,0.999737,3.590003
15.25033,99.31824,-0.06586661,0.999737,3.596462
15.30048,91.18073,-0.0718217,0.9999016,3.590003
15.35169,87.23911,-0.0718217,0.999737,3.590003
15.40155,82.15317,-0.0718217,0.999737,3.590003
15.45069,130.5968,-0.06884526,0.999737,3.590003
15.50068,148.7791,-0.0718217,0.9999016,3.590003
15.55068,140.0058,-0.0718217,0.9999016,3.590003
15.60093,122.5864,-0.0718217,0.999737,3.590003
15.65119,109.8716,-0.0718217,0.999737,3.590003
15.69994,106.1843,-0.06884526,0.999737,3.590003
15.74981,106.5657,-0.07480036,0.9999016,3.590003
15.80009,106.9472,-0.06884526,0.999737,3.590003
15.85132,96.26666,-0.06884526,0.9995722,3.590003
15.90147,87.36626,-0.07480036,0.999737,3.590003
15.94979,84.95044,-0.06884526,0.999737,3.590003
16.00005,109.8716,-0.06884526,0.999737,3.590003
16.05068,146.8718,-0.07480036,0.9995722,3.590003
16.1018,145.7275,-0.06884526,0.9995722,3.590003
16.15166,128.3081,-0.06884526,0.999737,3.583544
16.20076,112.4145,-0.0718217,0.999737,3.583544
16.24962,106.9472,-0.06884526,0.999737,3.583544
16.30005,106.3114,-0.06884526,0.999737,3.583544
16.35105,106.9472,-0.0718217,0.999737,3.583544
16.4018,106.4386,-0.0718217,0.9995722,3.583544
16.45032,89.0192,-0.0718217,0.999737,3.583544
16.50029,86.22193,-0.06884526,0.9999016,3.583544
16.5501,83.04321,-0.06884526,0.999737,3.583544
16.60089,102.7513,-0.0718217,0.9995722,3.583544
16.65063,141.7859,-0.06884526,0.999737,3.583544
16.70052,140.2601,-0.06884526,0.999737,3.583544
16.75069,115.339,-0.06884526,0.9999016,3.583544
16.79972,106.82,-0.0718217,0.999737,3.583544
16.85109,102.3698,-0.0718217,0.999737,3.583544
16.90109,104.6585,-0.0718217,0.999737,3.583544
16.94994,106.5657,-0.0718217,0.999737,3.583544
17.00081,92.19792,-0.0718217,0.999737,3.583544
17.05096,86.85767,-0.0718217,0.999737,3.577085
17.10159,84.82329,-0.0718217,0.999737,3.583544
17.15159,98.9368,-0.06884526,0.9999016,3.577085
17.2,123.7308,-0.06884526,0.999737,3.583544
17.25009,139.8786,-0.06884526,0.999737,3.583544
17.29978,121.1878,-0.06884526,0.999737,3.583544
17.35092,105.0399,-0.0718217,0.9999016,3.583544
17.40068,101.9884,-0.06884526,0.9995722,3.577085
17.4497,105.5485,-0.06884526,0.999737,3.577085
17.50055,106.4386,-0.06884526,0.999737,3.577085
17.55015,96.13953,-0.0718217,0.999737,3.583544
17.60102,86.47623,-0.0718217,0.999737,3.577085
17.65176,85.07759,-0.0718217,0.9995722,3.577085
17.70067,96.13953,-0.0718217,0.999737,3.577085
17.7508,141.6587,-0.0718217,0.9999016,3.577085
17.80038,140.8958,-0.0718217,0.999737,3.583544
17.85106,126.6552,-0.0718217,0.999737,3.602921
17.90077,107.71,-0.0718217,0.9999016,3.577085
17.95077,104.9128,-0.0718217,0.999737,3.564166
18.00014,106.82,-0.0718217,0.999737,3.538329
18.05029,108.8544,-0.06884526,0.9995722,3.577085
18.10116,107.8372,-0.06884526,0.999737,3.615839
18.15081,92.83366,-0.0718217,0.9999016,3.596462
18.20067,88.12916,-0.0718217,0.999737,3.570625
18.25004,93.46941,-0.0718217,0.9995722,3.570625
18.30001,144.8374,-0.0718217,0.999737,3.577085
18.35067,145.7275,-0.06884526,0.9995722,3.577085
18.40159,125.7652,-0.06884526,0.9995722,3.570625
18.45065,114.8304,-0.0718217,0.999737,3.570625
18.50034,110.6345,-0.0718217,0.9999016,3.570625
18.55006,109.363,-0.06884526,0.999737,3.564166
18.60102,109.4901,-0.0718217,0.999737,3.557707
18.65109,109.2358,-0.0718217,0.9995722,3.570625
18.69979,93.34225,-0.0718217,0.9999016,3.590003
18.7508,88.63776,-0.06884526,0.999737,3.583544
18.80054,106.1843,-0.06884526,0.9995722,3.583544
18.85132,142.5488,-0.06884526,0.999737,3.577085
18.90108,145.0918,-0.06884526,0.999737,3.564166
18.94974,135.5556,-0.0718217,0.999737,3.570625
19.00085,123.8579,-0.0718217,0.999737,3.570625
19.05055,111.5245,-0.06884526,0.9995722,3.570625
19.10188,112.1602,-0.06884526,0.9995722,3.570625
19.15179,112.2874,-0.06884526,0.999737,3.577085
19.20029,111.5245,-0.0718217,0.9995722,3.570625
19.25055,97.79247,-0.0718217,0.999737,3.577085
19.30068,91.56216,-0.0718217,0.999737,3.570625
19.3518,87.74771,-0.0718217,0.999737,3.577085
19.40137,104.9128,-0.0718217,0.9995722,3.570625
19.45053,146.3632,-0.06884526,0.9995722,3.570625
19.50058,146.8718,-0.06884526,0.999737,3.570625
19.5507,126.2737,-0.0718217,0.999737,3.570625
19.60153,116.9919,-0.0718217,0.999737,3.564166
19.65145,112.4145,-0.0718217,0.9995722,3.564166
19.70091,110.7616,-0.0718217,0.999737,3.564166
19.75051,110.5073,-0.06884526,0.999737,3.564166
19.79979,109.9987,-0.06884526,0.999737,3.564166
19.85135,93.08795,-0.0718217,0.999737,3.564166
19.90105,87.74771,-0.06884526,0.9995722,3.564166
19.95054,84.18755,-0.0718217,0.9999016,3.564166
20.00029,103.387,-0.06884526,0.999737,3.564166
20.05083,145.346,-0.0718217,0.999737,3.570625
20.10158,143.9474,-0.06884526,0.999737,3.564166
20.15157,132.1226,-0.0718217,0.999737,3.564166
20.20033,120.6792,-0.0718217,0.999737,3.564166
20.24979,111.5245,-0.06884526,0.999737,3.564166
20.30057,107.2015,-0.0718217,0.999737,3.570625
20.35157,107.3286,-0.06884526,0.999737,3.564166
20.40169,108.4729,-0.0718217,0.999737,3.564166
20.44986,92.83366,-0.06884526,0.999737,3.564166
20.49982,86.85767,-0.0718217,0.9999016,3.570625
20.54988,81.77173,-0.0718217,0.9999016,3.570625
20.60105,84.69615,-0.0718217,0.999737,3.570625
20.651,128.3081,-0.06884526,0.9896896,3.570625
20.70006,139.1158,-0.06884526,0.9896896,3.577085
20.74978,129.4525,-0.06884526,0.9896896,3.583544
20.79978,116.1019,-0.06884526,0.9896896,3.577085
20.8515,107.71,-0.06884526,0.9896896,3.577085
20.90104,106.9472,-0.06884526,0.9896896,3.570625
20.94981,109.7444,-0.06884526,0.9896896,3.577085
20.99969,110.5073,-0.06884526,0.9896896,3.570625
21.05044,93.978,-0.0718217,0.9898543,3.570625
21.10115,88.12916,-0.0718217,0.9898543,3.577085
21.15091,88.89205,-0.0718217,0.9898543,3.570625
21.20096,94.61374,-0.06884526,0.9898543,3.577085
21.25038,145.7275,-0.0718217,0.9898543,3.557707
21.30091,137.4628,-0.0718217,0.9896896,3.512493
21.35191,117.2462,-0.0718217,0.989525,3.551248
21.40177,107.71,-0.0718217,0.989525,3.551248
21.45009,107.3286,-0.0718217,0.9896896,3.564166
21.49981,108.4729,-0.0718217,0.9896896,3.564166
21.54993,107.71,-0.0718217,0.9896896,3.564166
21.60075,95.88522,-0.0718217,0.9896896,3.564166
21.65173,91.56216,-0.0718217,0.989525,3.564166
21.70004,89.2735,-0.06884526,0.9896896,3.564166
21.75069,121.9507,-0.07480036,0.9898543,3.583544
21.80007,143.8203,-0.06884526,0.9896896,3.525411
21.85125,134.4113,-0.06884526,0.9896896,3.557707
21.90115,121.0607,-0.0718217,0.9896896,3.564166
21.94981,109.7444,-0.0718217,0.9898543,3.564166
22.0005,106.5657,-0.0718217,0.9896896,3.570625
22.05048,105.4214,-0.07480036,0.9896896,3.564166
22.10174,105.4214,-0.0718217,0.9896896,3.564166
22.15181,95.24948,-0.0718217,0.9898543,3.570625
22.20056,90.16354,-0.0718217,0.9896896,3.570625
22.25081,88.5106,-0.0718217,0.9896896,3.577085
22.30025,109.2358,-0.0718217,0.9896896,3.577085
22.35156,140.0058,-0.0718217,0.9896896,3.577085
22.40156,127.1638,-0.06884526,0.9896896,3.577085
22.44976,111.3974,-0.0718217,0.989525,3.570625
22.50081,100.3354,-0.06884526,0.9898543,3.570625
22.55002,101.8612,-0.0718217,0.989525,3.577085
22.60096,102.8784,-0.06884526,0.9896896,3.577085
22.65127,104.277,-0.06884526,0.9896896,3.583544
22.70001,92.32506,-0.0718217,0.9896896,3.590003
22.75031,85.71333,-0.06884526,0.9896896,3.590003
22.80005,96.01237,-0.0718217,0.989525,3.596462
22.85143,141.6587,-0.0718217,0.9896896,3.602921
22.90091,143.0574,-0.0718217,0.9896896,3.602921
22.95093,133.2669,-0.06884526,0.9896896,3.596462
22.99981,117.119,-0.0718217,0.9798071,3.602921
23.05079,105.4214,-0.0718217,0.9796425,3.596462
23.10153,104.277,-0.06884526,0.9796425,3.596462
23.15156,106.5657,-0.0718217,0.9796425,3.602921
23.20043,104.0227,-0.06884526,0.9798071,3.60938
23.2504,90.29069,-0.0718217,0.9796425,3.615839
23.3,87.74771,-0.0718217,0.9798071,3.615839
23.35125,120.4249,-0.06884526,0.9796425,3.615839
23.40155,142.6759,-0.06884526,0.9796425,3.622298
23.45028,136.6999,-0.0718217,0.9796425,3.635217
23.49981,125.3837,-0.0718217,0.9798071,3.641676
23.5508,112.9231,-0.06884526,0.9798071,3.641676
23.60143,107.4557,-0.06884526,0.9796425,3.641676
23.65136,108.2186,-0.06884526,0.9798071,3.648135
23.70081,108.2186,-0.0718217,0.9796425,3.641676
23.75093,94.74089,-0.06884526,0.9796425,3.635217
23.80055,88.5106,-0.0718217,0.9796425,3.648135
23.85128,107.5829,-0.0718217,0.9796425,3.661053
23.90074,138.9886,-0.0718217,0.9796425,3.654594
23.95028,138.7343,-0.0718217,0.9796425,3.661053
23.99993,130.5968,-0.0718217,0.9796425,3.673972
24.04992,118.3905,-0.06884526,0.9796425,3.68689
24.10173,105.5485,-0.06884526,0.9796425,3.693349
24.15167,104.1499,-0.0718217,0.9796425,3.68689
24.20036,106.0571,-0.0718217,0.9796425,3.680431
24.25006,105.6757,-0.06884526,0.9798071,3.699808
24.30081,90.54498,-0.0718217,0.9798071,3.706268
24.3508,86.22193,-0.0718217,0.9796425,3.706268
24.4018,121.8235,-0.0777768,0.9796425,3.706268
24.45011,137.0814,-0.0718217,0.9796425,3.706268
24.50034,135.1741,-0.0718217,0.9798071,3.725645
24.55088,112.9231,-0.0718217,0.9796425,3.732104
24.60188,103.5141,-0.0718217,0.9796425,3.732104
24.6514,103.7684,-0.0718217,0.9796425,3.732104
24.6998,103.5141,-0.06884526,0.9798071,3.725645
24.75025,103.8956,-0.0718217,0.9796425,3.745023
24.80005,91.30788,-0.0718217,0.9796425,3.757941
24.85092,85.71333,-0.0718217,0.9796425,3.757941
24.90178,104.4042,-0.0718217,0.9798071,3.757941
24.94988,140.1329,-0.0718217,0.9798071,3.7644
25.00075,137.2085,-0.06884526,0.9798071,3.7644
25.05026,119.5349,-0.06884526,0.9796425,3.7644
25.10075,107.71,-0.0718217,0.9796425,3.7644
25.152,101.9884,-0.0718217,0.9796425,3.777318
25.20063,101.6069,-0.0718217,0.9796425,3.777318
25.2505,101.9884,-0.0718217,0.9796425,3.777318
25.3005,90.92643,-0.06884526,0.9796425,3.770859
25.35138,87.23911,-0.0718217,0.9796425,3.777318
25.40134,108.3458,-0.06884526,0.9796425,3.790237
25.44987,134.6656,-0.06884526,0.9798071,3.803155
25.50054,136.1913,-0.07480036,0.9796425,3.796696
25.55028,128.3081,-0.0718217,0.9798071,3.790237
25.60115,107.0743,-0.0718217,0.9798071,3.790237
25.65188,96.64812,-0.0718217,0.9798071,3.816073
25.69976,98.04675,-0.0718217,0.9798071,3.828992
25.75029,100.4626,-0.06884526,0.9796425,3.828992
25.80026,99.82683,-0.0718217,0.9796425,3.822533
25.85154,83.80611,-0.0718217,0.9796425,3.828992
25.90104,87.62056,-0.06884526,0.9798071,3.822533
25.95076,109.363,-0.06884526,0.9796425,3.816073
26.00079,135.1741,-0.0718217,0.9796425,3.803155
26.05079,124.748,-0.0718217,0.9796425,3.822533
26.10175,113.1774,-0.0718217,0.9796425,3.835451
26.151,97.79247,-0.0718217,0.9796425,3.835451
26.20083,96.64812,-0.0718217,0.9796425,3.84191
26.25054,97.53816,-0.0718217,0.9798071,3.861288
26.30046,97.41101,-0.0718217,0.9798071,3.874206
26.35104,87.23911,-0.07480036,0.9798071,3.867747
26.40092,79.48306,-0.0718217,0.9796425,3.880665
26.45062,102.6241,-0.06884526,0.9796425,3.867747
26.50054,135.8099,-0.0718217,0.9798071,3.854828
26.55088,131.614,-0.0718217,0.9798071,3.867747
26.602,117.119,-0.06884526,0.9796425,3.867747
26.65079,98.04675,-0.06586661,0.9796425,3.874206
26.7,97.28386,-0.06884526,0.9798071,3.887124
26.74979,97.79247,-0.06884526,0.9796425,3.893583
26.80079,99.69969,-0.06884526,0.9798071,3.906502
26.85079,86.98483,-0.06884526,0.9798071,3.893583
26.90079,81.51743,-0.06884526,0.9796425,3.880665
26.95024,110.6345,-0.0718217,0.9798071,3.874206
27.00004,138.48,-0.06884526,0.9796425,3.867747
27.05003,135.937,-0.06884526,0.9796425,3.887124
27.10133,119.9163,-0.06884526,0.9796425,3.887124
27.15134,102.497,-0.06884526,0.9798071,3.887124
27.20003,97.02956,-0.0718217,0.9798071,3.887124
27.25084,97.15671,-0.0718217,0.9796425,3.912961
27.3,98.04675,-0.0718217,0.9796425,3.938797
27.35095,98.42819,-0.07480036,0.9798071,3.925879
27.40181,88.63776,-0.06884526,0.9796425,3.91942
27.44999,87.74771,-0.0718217,0.9794778,3.906502
27.49999,120.2978,-0.06884526,0.9798071,3.900043
27.55031,136.5728,-0.0718217,0.9798071,3.91942
27.60128,122.4593,-0.0718217,0.9796425,3.91942
27.65203,101.7341,-0.06884526,0.9796425,3.91942
27.70078,94.86804,-0.0718217,0.9796425,3.906502
27.75061,98.1739,-0.0718217,0.9798071,3.906502
27.80027,99.44539,-0.06884526,0.9796425,3.900043
27.85148,96.26666,-0.06884526,0.9798071,3.912961
27.90147,81.51743,-0.06884526,0.9796425,3.91942
27.95021,89.14634,-0.0718217,0.9796425,3.912961
28.00066,123.7308,-0.0718217,0.9796425,3.912961
28.04988,139.4972,-0.0718217,0.9796425,3.91942
28.10099,126.0195,-0.06884526,0.9798071,3.91942
28.15195,100.4626,-0.06884526,0.9796425,3.932338
28.20049,91.56216,-0.06884526,0.9796425,3.925879
28.25023,91.68932,-0.0718217,0.9798071,3.925879
28.3005,92.32506,-0.0718217,0.9796425,3.932338
28.35111,94.10515,-0.06884526,0.9796425,3.932338
28.40149,82.66177,-0.06884526,0.9796425,3.932338
28.45023,83.80611,-0.0718217,0.9798071,3.932338
28.50028,112.9231,-0.0718217,0.9798071,3.932338
28.55018,139.7515,-0.06884526,0.9798071,3.932338
28.60098,128.181,-0.0718217,0.9798071,3.938797
28.65146,103.1327,-0.0718217,0.9794778,3.938797
28.7009,93.2151,-0.0718217,0.9798071,3.938797
28.75081,94.99519,-0.0718217,0.9798071,3.938797
28.80024,97.02956,-0.06586661,0.9796425,3.938797
28.85112,97.15671,-0.06884526,0.9794778,3.938797
28.90144,84.69615,-0.0718217,0.9798071,3.945257
28.95084,91.30788,-0.06884526,0.9798071,3.945257
29.00061,116.8647,-0.0718217,0.9796425,3.945257
29.04985,145.4732,-0.06884526,0.9796425,3.945257
29.10172,137.4628,-0.0718217,0.9796425,3.951716
29.15158,113.9403,-0.06884526,0.9796425,3.945257
29.20073,107.8372,-0.06884526,0.9796425,3.945257
29.24986,97.9196,-0.0718217,0.9794778,3.945257
29.29986,102.7513,-0.0718217,0.9796425,3.951716
29.35106,103.1327,-0.0718217,0.9798071,3.945257
29.40185,89.78209,-0.0718217,0.9796425,3.951716
29.45061,108.2186,-0.0718217,0.9796425,3.951716
29.49982,134.9198,-0.0718217,0.9798071,3.945257
29.54985,149.2876,-0.06884526,0.9798071,3.951716
29.60175,143.566,-0.0718217,0.9796425,3.951716
29.6512,117.5005,-0.06884526,0.9796425,3.951716
29.69998,108.9815,-0.0718217,0.9798071,3.951716
29.75073,108.4729,-0.06884526,0.9796425,3.951716
29.80102,109.363,-0.0718217,0.9798071,3.951716
29.85102,110.1259,-0.0718217,0.9798071,3.951716
29.90177,91.94361,-0.06884526,0.9798071,3.951716
29.95096,112.1602,-0.06884526,0.9796425,3.951716
30.0001,145.4732,-0.0718217,0.9798071,3.951716
30.05064,151.4492,-0.0718217,0.9796425,3.951716
30.10123,143.1845,-0.0718217,0.9798071,3.951716
30.1511,122.9679,-0.0718217,0.9796425,3.958175
30.20022,114.4489,-0.0718217,0.9796425,3.958175
30.25089,112.9231,-0.0718217,0.9796425,3.951716
30.29989,112.796,-0.0718217,0.9796425,3.951716
30.35109,112.796,-0.0718217,0.9798071,3.951716
30.40147,98.04675,-0.06884526,0.9796425,3.958175
30.45009,129.5796,-0.0718217,0.9796425,3.951716
30.50004,152.3392,-0.06884526,0.9798071,3.951716
30.54985,148.1433,-0.0718217,0.9798071,3.958175
30.60172,136.6999,-0.06884526,0.9796425,3.951716
30.65123,123.4765,-0.06884526,0.9796425,3.951716
30.70102,114.4489,-0.0718217,0.9798071,3.951716
30.75007,115.5933,-0.0718217,0.9796425,3.951716
30.80102,115.0847,-0.06884526,0.9796425,3.951716
30.85109,100.0811,-0.0718217,0.9796425,3.951716
30.90095,95.37663,-0.06884526,0.9798071,3.958175
30.95077,133.5212,-0.06884526,0.9796425,3.958175
31.00035,151.7035,-0.06884526,0.9796425,3.951716
31.04997,146.6175,-0.06884526,0.9796425,3.951716
31.10101,135.8099,-0.06884526,0.9798071,3.945257
31.15109,120.6792,-0.06884526,0.9798071,3.932338
31.20057,114.7032,-0.0718217,0.9796425,3.912961
31.25039,113.5589,-0.0718217,0.9796425,3.925879
31.30034,113.5589,-0.06884526,0.9798071,3.932338
31.3511,99.57254,-0.06884526,0.9798071,3.932338
31.40158,94.99519,-0.0718217,0.9796425,3.938797
31.45097,114.8304,-0.06884526,0.9796425,3.938797
31.50072,152.4664,-0.06884526,0.9796425,3.932338
31.55012,146.999,-0.0718217,0.9796425,3.938797
31.60209,137.4628,-0.0718217,0.9796425,3.932338
31.65198,121.9507,-0.06884526,0.9798071,3.932338
31.70069,114.0675,-0.06884526,0.9798071,3.932338
31.75054,115.2118,-0.06884526,0.9796425,3.925879
31.80034,115.9747,-0.06884526,0.9796425,3.925879
31.85109,101.7341,-0.0718217,0.9796425,3.925879
31.90096,98.1739,-0.06884526,0.9798071,3.925879
31.95044,112.796,-0.0718217,0.9798071,3.925879
32.0001,147.2533,-0.0718217,0.9796425,3.925879
32.05071,149.5419,-0.0718217,0.9796425,3.91942
32.10197,144.5831,-0.06884526,0.9796425,3.91942
32.15092,133.1398,-0.06884526,0.9798071,3.912961
32.20074,120.5521,-0.06884526,0.9796425,3.91942
32.25085,118.2634,-0.0718217,0.9796425,3.91942
32.30035,119.0263,-0.0718217,0.9798071,3.91942
32.35109,117.8819,-0.06884526,0.9796425,3.912961
32.40196,105.0399,-0.06884526,0.9796425,3.912961
32.44996,97.41101,-0.06884526,0.9796425,3.912961
32.50088,115.9747,-0.06884526,0.9798071,3.912961
32.54996,152.4664,-0.0718217,0.9796425,3.906502
32.60201,151.1949,-0.0718217,0.9796425,3.912961
32.65123,144.2017,-0.0718217,0.9796425,3.906502
32.70034,134.0298,-0.06884526,0.9796425,3.906502
32.75019,124.6208,-0.06884526,0.9798071,3.912961
32.80111,122.205,-0.0718217,0.9796425,3.900043
32.85125,121.5692,-0.0718217,0.9796425,3.900043
32.9011,121.1878,-0.0718217,0.9796425,3.900043
32.95083,102.7513,-0.07480036,0.9796425,3.900043
33.0003,97.02956,-0.0718217,0.9796425,3.900043
33.05109,113.1774,-0.06884526,0.9796425,3.893583
33.10158,148.9062,-0.0718217,0.9796425,3.893583
33.15096,151.1949,-0.06884526,0.9796425,3.900043
33.20046,150.8134,-0.0718217,0.9798071,3.893583
33.25071,139.8786,-0.06884526,0.9798071,3.893583
33.30095,126.528,-0.06884526,0.9796425,3.893583
33.35209,122.9679,-0.0718217,0.9798071,3.887124
33.40173,121.4421,-0.0718217,0.9796425,3.887124
33.45008,119.0263,-0.0718217,0.9796425,3.887124
33.50096,103.5141,-0.06884526,0.9796425,3.887124
33.55023,99.31824,-0.0718217,0.9796425,3.880665
33.60208,95.24948,-0.0718217,0.9798071,3.887124
33.65102,88.25631,-0.0718217,0.9896896,3.880665
33.69995,91.05358,-0.0718217,0.9896896,3.880665
33.74995,142.0402,-0.06884526,0.989525,3.874206
33.8008,149.6691,-0.06884526,0.9896896,3.887124
33.85125,145.4732,-0.0718217,0.9898543,3.893583
33.9012,142.2945,-0.0718217,0.9896896,3.893583
33.95108,128.9439,-0.06884526,0.9898543,3.893583
34.00095,121.8235,-0.0718217,0.9896896,3.880665
34.05055,119.0263,-0.0718217,0.9896896,3.880665
34.10172,117.2462,-0.0718217,0.9896896,3.880665
34.15095,105.1671,-0.06884526,0.9896896,3.880665
34.20081,98.6825,-0.06884526,0.9898543,3.880665
34.2505,92.45221,-0.06884526,0.9896896,3.874206
34.3005,89.78209,-0.0718217,0.9896896,3.880665
34.35125,84.569,-0.0718217,0.9896896,3.880665
34.40176,83.17036,-0.0718217,0.989525,3.887124
34.45002,95.12233,-0.0718217,0.9896896,3.874206
34.50097,144.7103,-0.06884526,0.9898543,3.854828
34.55099,145.4732,-0.06884526,0.9896896,3.874206
34.6015,138.6072,-0.0718217,0.9896896,3.874206
34.65196,130.0882,-0.06884526,0.9896896,3.874206
34.70049,117.7548,-0.0718217,0.9896896,3.867747
34.75021,116.229,-0.0718217,0.9898543,3.861288
34.80037,115.5933,-0.0718217,0.9896896,3.867747
34.85105,107.4557,-0.06586661,0.9896896,3.861288
34.90174,99.31824,-0.06884526,0.9896896,3.867747
34.95049,92.45221,-0.0718217,0.9898543,3.861288
35.00049,90.79928,-0.0718217,0.9896896,3.861288
35.05016,86.98483,-0.06884526,0.9896896,3.861288
35.10191,88.12916,-0.0718217,0.9896896,3.854828
35.152,130.0882,-0.0718217,0.9898543,3.861288
35.20073,145.6003,-0.0718217,0.9896896,3.854828
35.2504,139.6244,-0.06884526,0.9896896,3.854828
35.29996,128.9439,-0.06884526,0.9898543,3.848369
35.35136,116.7376,-0.0718217,0.9898543,3.861288
35.40125,112.796,-0.0718217,0.9896896,3.854828
35.45104,113.686,-0.0718217,0.9898543,3.854828
35.50107,113.9403,-0.06884526,0.9896896,3.854828
35.55049,99.82683,-0.06884526,0.989525,3.854828
35.60149,95.24948,-0.0718217,0.9896896,3.854828
35.65202,91.43503,-0.06884526,0.9995722,3.854828
35.70006,84.69615,-0.0718217,0.999737,3.848369
35.74994,108.3458,-0.06884526,0.999737,3.848369
35.80094,142.6759,-0.0718217,0.999737,3.848369
35.85194,142.8031,-0.06884526,0.9995722,3.848369
35.90124,138.48,-0.0718217,0.999737,3.848369
35.94995,127.0366,-0.06884526,0.999737,3.848369
36.00108,115.9747,-0.06884526,0.9995722,3.848369
36.0509,113.9403,-0.0718217,0.9995722,3.848369
36.10192,113.3046,-0.0718217,0.999737,3.848369
36.15136,112.5417,-0.06884526,0.999737,3.84191
36.20008,97.41101,-0.0718217,0.999737,3.84191
36.25007,93.08795,-0.0718217,0.9995722,3.84191
36.30086,86.60338,-0.0718217,0.999737,3.835451
36.35115,82.91606,-0.0718217,0.999737,3.84191
36.4019,115.5933,-0.0718217,0.9999016,3.84191
36.45052,145.6003,-0.0718217,0.9995722,3.835451
36.50107,145.346,-0.0718217,0.9999016,3.84191
36.55061,139.3701,-0.0718217,0.9995722,3.835451
36.60107,133.7755,-0.06884526,0.9995722,3.835451
36.65201,117.3734,-0.0718217,0.999737,3.835451
36.70103,114.9575,-0.0718217,0.999737,3.835451
36.75103,113.1774,-0.06884526,0.999737,3.828992
36.80052,111.1431,-0.0718217,0.9995722,3.828992
36.85179,98.1739,-0.0718217,0.999737,3.835451
36.90127,91.30788,-0.06884526,0.9995722,3.828992
36.95043,84.69615,-0.06884526,0.999737,3.828992
37.00008,85.33189,-0.0718217,0.999737,3.828992
37.05091,126.528,-0.06884526,0.999737,3.828992
37.10116,147.3804,-0.0718217,0.999737,3.828992
37.15093,145.8546,-0.06884526,0.999737,3.828992
37.2008,141.913,-0.06884526,0.999737,3.822533
37.2506,124.2394,-0.06884526,0.999737,3.822533
37.30041,117.8819,-0.0718217,0.999737,3.822533
37.35172,115.0847,-0.0718217,0.999737,3.828992
37.40141,111.906,-0.06884526,0.999737,3.822533
37.45023,101.4798,-0.06884526,0.9995722,3.816073
37.50106,94.2323,-0.06884526,0.999737,3.822533
37.55093,89.2735,-0.06884526,0.999737,3.822533
37.60095,86.09478,-0.06884526,0.999737,3.822533
37.65094,81.13599,-0.06884526,0.999737,3.816073
37.70018,90.41783,-0.06884526,0.999737,3.816073
37.75122,149.9234,-0.06884526,0.9995722,3.816073
37.8012,149.2876,-0.0718217,0.999737,3.816073
37.85122,141.1501,-0.0718217,0.999737,3.816073
37.90172,128.9439,-0.06884526,0.9999016,3.816073
37.95047,118.6448,-0.07480036,0.999737,3.816073
38.00005,114.7032,-0.07480036,0.999737,3.809614
38.05105,114.3218,-0.06884526,0.999737,3.809614
38.10194,114.1946,-0.0718217,0.999737,3.809614
38.15197,100.844,-0.06586661,0.999737,3.809614
38.20093,92.32506,-0.06884526,0.999737,3.809614
38.2506,88.38345,-0.06884526,0.999737,3.809614
38.30015,83.67896,-0.07480036,0.999737,3.809614
38.3522,102.7513,-0.06586661,0.999737,3.809614
38.40096,147.3804,-0.06884526,0.999737,3.809614
38.45087,146.6175,-0.06884526,0.999737,3.803155
38.50095,135.1741,-0.06884526,0.999737,3.809614
38.55085,125.0023,-0.06884526,0.999737,3.809614
38.60215,113.1774,-0.06884526,0.9999016,3.803155
38.65103,113.1774,-0.06884526,0.9995722,3.796696
38.70058,112.6688,-0.06884526,0.999737,3.803155
38.75059,113.1774,-0.06884526,0.999737,3.803155
38.80043,92.7065,-0.0718217,0.999737,3.803155
38.85102,91.56216,-0.0718217,0.999737,3.803155
38.90224,85.45904,-0.06884526,0.999737,3.796696
38.95059,90.16354,-0.06884526,0.9999016,3.803155
39.00047,139.1158,-0.06586661,0.999737,3.796696
39.05047,148.5248,-0.06884526,0.999737,3.803155
39.10215,143.566,-0.06884526,0.999737,3.803155
39.15185,130.5968,-0.06884526,0.999737,3.796696
39.20057,123.2222,-0.0718217,0.999737,3.796696
39.25047,112.9231,-0.06884526,0.999737,3.796696
39.3002,112.5417,-0.06884526,0.999737,3.796696
39.35119,111.0159,-0.06884526,0.999737,3.796696
39.40218,95.12233,-0.06884526,0.999737,3.796696
39.45102,89.78209,-0.0718217,0.999737,3.796696
39.50044,85.07759,-0.06884526,0.9995722,3.790237
39.55113,80.50024,-0.06586661,0.999737,3.790237
39.60134,91.68932,-0.06884526,0.999737,3.790237
39.65171,145.8546,-0.0718217,0.9995722,3.790237
39.70118,148.2705,-0.06884526,0.999737,3.790237
39.75043,138.48,-0.0718217,0.999737,3.790237
39.80118,126.2737,-0.0718217,0.9995722,3.783778
39.85199,116.4833,-0.06586661,0.999737,3.783778
39.90203,116.1019,-0.06586661,0.9995722,3.790237
39.95038,115.2118,-0.06884526,0.999737,3.790237
40.00019,103.6413,-0.06884526,0.999737,3.783778
40.05093,96.01237,-0.06884526,0.999737,3.783778
40.10179,91.05358,-0.06884526,0.999737,3.783778
40.15116,84.69615,-0.06884526,0.9999016,3.783778
40.20096,83.93326,-0.06884526,0.999737,3.783778
40.25073,132.1226,-0.0718217,0.999737,3.783778
40.30097,151.322,-0.06884526,0.999737,3.783778
40.35215,144.5831,-0.06884526,0.9999016,3.777318
40.40179,141.913,-0.06884526,0.999737,3.777318
40.45046,119.7892,-0.06884526,0.999737,3.777318
40.50104,116.3562,-0.06884526,0.9995722,3.777318
40.55046,113.9403,-0.06884526,0.999737,3.777318
40.60154,111.906,-0.06884526,0.999737,3.770859
40.65113,98.9368,-0.06884526,0.9995722,3.770859
40.70098,92.7065,-0.06884526,0.999737,3.770859
40.75115,86.47623,-0.0718217,0.999737,3.770859
40.80107,82.66177,-0.06884526,0.999737,3.770859
40.85215,79.86449,-0.0718217,0.999737,3.770859
40.90191,115.9747,-0.06884526,0.999737,3.770859
40.95017,152.3392,-0.06884526,0.999737,3.770859
41.00054,150.432,-0.0718217,0.999737,3.7644
41.05029,137.0814,-0.06884526,0.9999016,3.7644
41.10129,122.5864,-0.0718217,0.999737,3.770859
41.15189,115.5933,-0.06884526,0.999737,3.7644
41.20054,112.2874,-0.06884526,0.9995722,3.7644
41.25053,111.5245,-0.06884526,0.999737,3.7644
41.30041,104.1499,-0.0718217,0.999737,3.7644
41.35189,95.75809,-0.06884526,0.999737,3.7644
41.40104,86.85767,-0.0718217,0.999737,3.7644
41.45066,82.15317,-0.06884526,0.999737,3.7644
41.50066,89.2735,-0.06884526,0.999737,3.757941
41.5512,126.9095,-0.06884526,0.999737,3.7644
41.60115,150.8134,-0.06884526,0.999737,3.7644
41.65189,138.6072,-0.0718217,0.9995722,3.757941
41.70039,125.638,-0.06884526,0.999737,3.757941
41.75028,113.9403,-0.06884526,0.999737,3.7644
41.80113,108.9815,-0.06884526,0.999737,3.757941
41.85216,109.1087,-0.06884526,0.999737,3.7644
41.90191,107.71,-0.0718217,0.999737,3.757941
41.95016,96.52097,-0.0718217,0.999737,3.7644
42.00114,90.67213,-0.06884526,0.999737,3.7644
42.05095,84.18755,-0.06586661,0.9999016,3.757941
42.1019,82.53461,-0.0718217,0.9999016,3.7644
42.15174,94.2323,-0.06884526,0.999737,3.757941
42.20002,125.2566,-0.06884526,0.999737,3.757941
42.2503,145.346,-0.0718217,0.999737,3.7644
42.30016,135.4285,-0.06884526,0.999737,3.7644
42.35188,118.2634,-0.0718217,0.999737,3.757941
42.40157,108.0915,-0.06884526,0.9995722,3.7644
42.45083,109.7444,-0.06586661,0.999737,3.7644
42.50018,111.6517,-0.06884526,0.999737,3.7644
42.55088,109.2358,-0.0718217,0.999737,3.7644
42.6017,91.68932,-0.06884526,0.9999016,3.7644
42.65122,87.36626,-0.06884526,0.9995722,3.7644
42.70038,82.28033,-0.06884526,0.999737,3.7644
42.75047,113.686,-0.06884526,0.999737,3.7644
42.80018,152.975,-0.06884526,0.999737,3.7644
42.85194,149.4148,-0.06586661,0.999737,3.7644
42.90141,127.4181,-0.06884526,0.9999016,3.7644
42.95067,112.9231,-0.06586661,0.999737,3.7644
43.00042,107.4557,-0.06884526,0.999737,3.7644
43.05011,109.2358,-0.0718217,0.999737,3.7644
43.10157,110.5073,-0.0718217,0.9999016,3.770859
43.15149,99.82683,-0.06586661,0.999737,3.7644
43.2009,93.2151,-0.06884526,0.999737,3.770859
43.25016,87.62056,-0.06586661,0.999737,3.770859
43.30122,82.28033,-0.06884526,0.999737,3.770859
43.35111,112.796,-0.06884526,0.999737,3.770859
43.40221,153.9921,-0.0718217,0.999737,3.7644
43.45094,152.3392,-0.06884526,0.999737,3.770859
43.50057,133.7755,-0.06884526,0.999737,3.770859
43.55052,119.2806,-0.06884526,0.999737,3.770859
43.60216,112.0331,-0.0718217,0.999737,3.770859
43.65149,111.906,-0.06884526,0.999737,3.770859
43.70102,112.2874,-0.0718217,0.999737,3.770859
43.75103,111.1431,-0.06884526,0.999737,3.770859
43.80069,93.85085,-0.06884526,0.999737,3.770859
43.85166,85.33189,-0.06586661,0.999737,3.770859
43.90196,91.68932,-0.0718217,0.9999016,3.770859
43.9509,132.3769,-0.0718217,0.999737,3.770859
44.00025,152.3392,-0.0718217,0.999737,3.770859
44.05079,148.3976,-0.06884526,0.999737,3.770859
44.10111,134.4113,-0.0718217,0.999737,3.777318
44.15232,117.8819,-0.06884526,0.999737,3.777318
44.20116,110.3802,-0.06884526,0.9995722,3.777318
44.25116,110.3802,-0.06586661,0.999737,3.777318
44.30093,111.1431,-0.06884526,0.999737,3.777318
44.35168,96.64812,-0.06884526,0.999737,3.777318
44.40202,88.89205,-0.06884526,0.999737,3.777318
44.45081,83.67896,-0.06884526,0.9999016,3.777318
44.50093,94.2323,-0.06884526,0.9999016,3.777318
44.55037,150.3048,-0.06884526,0.999737,3.777318
44.60186,153.4836,-0.0718217,0.999737,3.777318
44.6516,137.3357,-0.06884526,0.999737,3.777318
44.70028,126.528,-0.0718217,0.999737,3.777318
44.75128,111.5245,-0.0718217,0.999737,3.777318
44.80035,109.9987,-0.0718217,0.999737,3.777318
44.85164,110.253,-0.06586661,0.999737,3.777318
44.90152,108.9815,-0.0718217,0.999737,3.777318
44.95114,95.12233,-0.0718217,0.999737,3.777318
45.00094,89.14634,-0.06884526,0.999737,3.777318
45.05074,80.50024,-0.06884526,0.999737,3.777318
45.10168,93.2151,-0.06586661,0.999737,3.783778
45.15138,149.5419,-0.06884526,0.999737,3.783778
45.2009,151.4492,-0.0718217,0.999737,3.777318
45.25076,123.7308,-0.0718217,0.999737,3.783778
45.30064,108.0915,-0.06884526,0.999737,3.783778
45.3511,106.9472,-0.06884526,0.999737,3.783778
45.40215,106.5657,-0.06884526,0.999737,3.783778
45.45027,106.1843,-0.0718217,0.999737,3.783778
45.50014,97.41101,-0.0718217,0.999737,3.783778
45.55014,87.62056,-0.06884526,0.9995722,3.783778
45.60146,81.51743,-0.06884526,0.999737,3.783778
45.65139,88.5106,-0.06884526,0.999737,3.783778
45.70014,142.1673,-0.07480036,0.9999016,3.783778
45.75089,149.6691,-0.06884526,0.999737,3.783778
45.80061,134.4113,-0.06884526,0.999737,3.790237
45.85133,115.8476,-0.06884526,0.9995722,3.783778
45.90136,106.1843,-0.06884526,0.999737,3.783778
45.95068,107.3286,-0.06884526,0.999737,3.783778
46.00099,106.9472,-0.06884526,0.999737,3.783778
46.05066,106.0571,-0.06884526,0.999737,3.783778
46.1016,89.65494,-0.06586661,0.999737,3.790237
46.15159,83.42466,-0.06884526,0.999737,3.783778
46.20017,88.7649,-0.0718217,0.999737,3.783778
46.25078,151.1949,-0.06884526,0.999737,3.783778
46.30081,148.3976,-0.06586661,0.999737,3.783778
46.3518,131.2325,-0.06884526,0.999737,3.783778
46.40134,111.906,-0.06884526,0.999737,3.783778
46.4513,103.0055,-0.07480036,0.999737,3.783778
46.50026,107.3286,-0.06884526,0.9999016,3.783778
46.5503,108.9815,-0.06884526,0.999737,3.783778
46.60126,107.3286,-0.06884526,0.9995722,3.783778
46.65209,89.14634,-0.0718217,0.999737,3.790237
46.701,83.55181,-0.0718217,0.9999016,3.790237
46.75064,107.5829,-0.0718217,0.9999016,3.783778
46.80023,151.5763,-0.06884526,0.999737,3.783778
46.85148,148.9062,-0.06884526,0.9999016,3.783778
46.90153,132.3769,-0.0718217,0.9999016,3.783778
46.95017,112.4145,-0.06884526,0.999737,3.783778
47.00051,108.4729,-0.06884526,0.999737,3.783778
47.05115,108.8544,-0.06884526,0.999737,3.783778
47.10225,109.2358,-0.0718217,0.9999016,3.783778
47.15223,108.0915,-0.0718217,1.000066,3.783778
47.20101,91.56216,-0.06884526,0.999737,3.783778
47.2503,86.47623,-0.06884526,0.999737,3.783778
47.3003,97.66531,-0.06884526,0.9999016,3.783778
47.35151,148.0162,-0.0718217,0.999737,3.783778
47.40162,151.9578,-0.0718217,0.999737,3.783778
47.45011,134.6656,-0.0718217,0.999737,3.783778
47.50027,119.4077,-0.06884526,0.9995722,3.783778
47.55014,108.8544,-0.06884526,0.999737,3.783778
47.60143,109.7444,-0.0718217,0.9999016,3.783778
47.65212,108.9815,-0.06586661,0.999737,3.783778
47.70079,109.2358,-0.06586661,0.9999016,3.783778
47.75082,91.56216,-0.06884526,0.999737,3.783778
47.80088,84.95044,-0.0718217,0.999737,3.783778
47.85138,85.96764,-0.06884526,0.999737,3.783778
47.90212,146.6175,-0.06884526,0.9999016,3.777318
47.95042,153.6107,-0.0718217,0.9999016,3.783778
48.00112,142.1673,-0.06884526,0.999737,3.777318
48.05046,126.4009,-0.06884526,0.999737,3.783778
48.10143,113.1774,-0.06884526,0.999737,3.777318
48.15157,111.906,-0.06884526,0.999737,3.777318
48.2001,111.906,-0.0718217,0.9999016,3.783778
48.25064,111.2702,-0.06884526,0.9995722,3.777318
48.30025,96.26666,-0.0718217,0.999737,3.777318
48.35125,90.41783,-0.0718217,0.999737,3.777318
48.40212,81.39028,-0.06884526,0.999737,3.777318
48.45108,82.91606,-0.06884526,0.999737,3.777318
48.50014,120.5521,-0.06884526,0.999737,3.777318
48.55062,151.4492,-0.06884526,0.999737,3.777318
48.60152,144.3289,-0.06884526,0.9999016,3.777318
48.65191,122.9679,-0.06884526,0.9898543,3.777318
48.7002,111.2702,-0.06884526,0.9896896,3.777318
48.75014,109.2358,-0.0718217,0.9896896,3.777318
48.80087,108.0915,-0.06884526,0.9896896,3.777318
48.85215,107.2015,-0.0718217,0.9896896,3.770859
48.90216,91.94361,-0.0718217,0.9896896,3.777318
48.9506,87.36626,-0.06586661,0.9896896,3.770859
49.00013,80.88168,-0.0718217,0.9898543,3.777318
49.05056,77.83012,-0.06884526,0.9896896,3.770859
49.10159,103.6413,-0.0718217,0.9896896,3.770859
49.15116,148.7791,-0.06884526,0.9896896,3.770859
49.20116,146.1089,-0.06884526,0.9896896,3.777318
49.25091,115.2118,-0.06884526,0.9898543,3.770859
49.30041,101.0983,-0.0718217,0.9896896,3.770859
49.35165,101.6069,-0.06884526,0.9896896,3.770859
49.40125,103.6413,-0.0718217,0.9896896,3.770859
49.45033,104.9128,-0.06884526,0.9896896,3.770859
49.50072,94.74089,-0.0718217,0.9898543,3.770859
49.55011,84.3147,-0.0718217,0.9896896,3.770859
49.60112,81.13599,-0.06884526,0.9898543,3.770859
49.65213,86.47623,-0.06586661,0.9898543,3.770859
49.70019,127.0366,-0.06884526,0.9898543,3.770859
49.75134,145.0918,-0.0718217,0.9898543,3.770859
49.80116,128.8167,-0.0718217,0.9898543,3.770859
49.85116,105.4214,-0.0718217,0.9896896,3.770859
49.90216,99.06393,-0.06884526,0.9896896,3.7644
49.95091,99.69969,-0.06884526,0.9896896,3.770859
50.00016,101.7341,-0.06884526,0.9896896,3.7644
50.05088,103.1327,-0.06884526,0.9896896,3.770859
50.10163,89.5278,-0.0718217,0.9898543,3.7644
50.15163,81.39028,-0.0718217,0.9898543,3.7644
50.20061,80.62739,-0.06884526,0.9896896,3.770859
50.25136,121.4421,-0.06884526,0.9896896,3.7644
50.30116,150.0505,-0.06884526,0.9896896,3.770859
50.35115,141.7859,-0.06884526,0.9896896,3.7644
50.40113,118.6448,-0.06884526,0.9896896,3.770859
50.45115,104.6585,-0.0718217,0.9898543,3.7644
50.50039,102.3698,-0.0718217,0.9898543,3.7644
50.55016,105.1671,-0.0718217,0.9896896,3.7644
50.60138,105.5485,-0.0718217,0.9896896,3.7644
50.65115,93.08795,-0.06884526,0.9898543,3.7644
50.70063,84.95044,-0.06884526,0.9896896,3.7644
50.7502,81.00883,-0.0718217,0.9898543,3.7644
50.80133,103.7684,-0.06884526,0.9896896,3.7644
50.85153,150.432,-0.0718217,0.9896896,3.757941
50.9015,149.5419,-0.06884526,0.9896896,3.757941
50.95015,131.9954,-0.0718217,0.9896896,3.7644
51.00036,113.1774,-0.0718217,0.9896896,3.757941
51.05136,106.82,-0.06884526,0.9896896,3.757941
51.10167,106.1843,-0.06884526,0.9896896,3.757941
51.15166,107.4557,-0.0718217,0.9896896,3.757941
51.20036,108.9815,-0.0718217,0.9898543,3.757941
51.25015,89.65494,-0.0718217,0.9896896,3.757941
51.30088,84.18755,-0.06884526,0.9896896,3.757941
51.35186,99.31824,-0.06884526,0.9898543,3.757941
51.40183,147.7619,-0.0718217,0.9896896,3.757941
51.45041,153.2293,-0.06884526,0.9896896,3.751482
51.50115,143.0574,-0.0718217,0.9896896,3.757941
51.55115,126.528,-0.0718217,0.9898543,3.757941
51.60227,113.4317,-0.0718217,0.9896896,3.751482
51.6521,109.9987,-0.0718217,0.9898543,3.751482
51.70035,109.6173,-0.06884526,0.9896896,3.751482
51.75048,109.363,-0.0718217,0.9898543,3.757941
51.80048,92.83366,-0.06884526,0.9896896,3.757941
51.85173,90.54498,-0.06884526,0.9896896,3.751482
51.90161,84.69615,-0.0718217,0.9896896,3.751482
51.95022,118.0091,-0.0718217,0.9898543,3.751482
52.00061,155.3908,-0.06586661,0.9896896,3.751482
52.05117,145.9818,-0.06884526,0.9896896,3.757941
52.10232,131.1054,-0.06884526,0.9896896,3.751482
52.15127,119.4077,-0.0718217,0.9898543,3.751482
52.20127,110.8888,-0.0718217,0.9896896,3.751482
52.25127,110.5073,-0.06884526,0.9896896,3.751482
52.30032,110.253,-0.06884526,0.9896896,3.751482
52.3524,104.277,-0.0718217,0.9898543,3.751482
52.4024,92.45221,-0.06884526,0.9896896,3.751482
52.45126,85.07759,-0.06586661,0.9896896,3.745023
52.50026,86.73053,-0.0718217,0.9896896,3.751482
52.55098,139.4972,-0.0718217,0.9896896,3.751482
52.60147,151.7035,-0.06884526,0.9896896,3.751482
52.6521,140.3873,-0.06884526,0.9896896,3.751482
52.70118,119.7892,-0.06884526,0.9896896,3.751482
52.75109,108.7272,-0.06884526,0.9896896,3.751482
52.801,107.5829,-0.0718217,0.9896896,3.751482
52.8521,108.4729,-0.06884526,0.9896896,3.745023
52.90156,109.2358,-0.0718217,0.9896896,3.751482
52.95139,96.90242,-0.06884526,0.9898543,3.751482
53.00026,86.85767,-0.06884526,0.9896896,3.751482
53.0511,85.33189,-0.06884526,0.9896896,3.745023
53.10182,113.686,-0.0718217,0.9896896,3.745023
53.15192,149.4148,-0.0718217,0.9898543,3.745023
53.20139,148.7791,-0.0718217,0.9898543,3.745023
53.25134,120.1706,-0.06884526,0.9898543,3.751482
53.30117,105.8028,-0.06884526,0.9896896,3.745023
53.35212,103.7684,-0.0718217,0.9898543,3.745023
53.40194,108.6001,-0.06884526,0.9896896,3.745023
53.45039,108.4729,-0.06884526,0.9896896,3.745023
53.50139,97.53816,-0.0718217,0.9896896,3.751482
53.55139,87.62056,-0.06884526,0.9896896,3.745023
53.60163,83.93326,-0.0718217,0.9896896,3.745023
53.65194,104.7856,-0.06884526,0.9796425,3.745023
53.70018,151.1949,-0.0718217,0.9798071,3.745023
53.75063,147.6347,-0.06884526,0.9798071,3.745023
53.80083,134.0298,-0.06884526,0.9798071,3.745023
53.85158,115.9747,-0.06884526,0.9796425,3.745023
53.90218,107.71,-0.0718217,0.9796425,3.745023
53.9507,108.2186,-0.06884526,0.9798071,3.745023
54.00039,110.7616,-0.0718217,0.9798071,3.745023
54.05051,109.2358,-0.0718217,0.9796425,3.745023
54.10156,95.63092,-0.06884526,0.9798071,3.745023
54.15171,86.73053,-0.06586661,0.9798071,3.745023
54.2005,88.7649,-0.0718217,0.9798071,3.745023
54.25026,144.9646,-0.06884526,0.9796425,3.745023
54.30045,150.8134,-0.06884526,0.9798071,3.745023
54.35138,141.913,-0.0718217,0.9896896,3.745023
54.40138,123.7308,-0.06884526,0.9898543,3.745023
54.45138,113.8132,-0.0718217,0.9896896,3.738563
54.50057,112.1602,-0.06884526,0.9896896,3.745023
54.55025,111.6517,-0.0718217,0.9896896,3.745023
54.60238,112.0331,-0.06884526,0.9898543,3.738563
54.65126,97.53816,-0.06884526,0.9896896,3.745023
54.70105,90.54498,-0.06884526,0.9898543,3.745023
54.7504,101.2255,-0.0718217,0.9898543,3.738563
54.8005,147.7619,-0.06884526,0.9896896,3.738563
54.85162,153.2293,-0.0718217,0.9896896,3.745023
54.90173,146.6175,-0.0718217,0.9896896,3.745023
54.95123,134.157,-0.0718217,0.9896896,3.745023
55.00026,119.7892,-0.06884526,0.9898543,3.745023
55.05035,115.5933,-0.0718217,0.9898543,3.745023
55.10159,114.3218,-0.06884526,0.9898543,3.745023
55.1521,113.1774,-0.06884526,0.9896896,3.745023
55.20057,99.95398,-0.06884526,0.9896896,3.745023
55.25142,92.19792,-0.06884526,0.9896896,3.745023
55.30025,87.36626,-0.0718217,0.9896896,3.745023
55.35162,105.6757,-0.0718217,0.9896896,3.745023
55.40162,146.7447,-0.06884526,0.9896896,3.745023
55.4511,151.7035,-0.0718217,0.9896896,3.751482
55.50055,147.2533,-0.06884526,0.9896896,3.751482
55.5505,133.1398,-0.06884526,0.9896896,3.751482
55.60162,121.0607,-0.0718217,0.9896896,3.751482
55.65163,114.9575,-0.0718217,0.9896896,3.751482
55.70146,114.1946,-0.06884526,0.9896896,3.757941
55.75033,113.0503,-0.06884526,0.9896896,3.751482
55.80094,100.3354,-0.06884526,0.9898543,3.757941
55.85207,90.92643,-0.06884526,0.9896896,3.757941
55.90207,86.22193,-0.0718217,0.9896896,3.757941
55.95129,92.7065,-0.0718217,0.9898543,3.7644
56.00126,128.6896,-0.06884526,0.9896896,3.7644
56.0511,150.432,-0.06884526,0.9896896,3.7644
56.10223,140.3873,-0.06586661,0.9896896,3.770859
56.15187,130.0882,-0.0718217,0.9898543,3.7644
56.20133,118.772,-0.06884526,0.9896896,3.770859
56.25092,111.3974,-0.06586661,0.9896896,3.770859
56.30062,112.6688,-0.0718217,0.9896896,3.770859
56.35155,113.1774,-0.06884526,0.9896896,3.777318
56.40162,98.42819,-0.0718217,0.9896896,3.777318
56.45029,90.79928,-0.06884526,0.9896896,3.777318
56.50145,87.23911,-0.0718217,0.9896896,3.783778
56.55106,84.95044,-0.06884526,0.9898543,3.783778
56.60183,111.3974,-0.06884526,0.9896896,3.790237
56.6517,147.1261,-0.0718217,0.9896896,3.790237
56.70033,146.2361,-0.06884526,0.9898543,3.790237
56.75106,129.4525,-0.0718217,0.9896896,3.796696
56.80032,113.5589,-0.06884526,0.9896896,3.790237
56.85234,110.5073,-0.0718217,0.9896896,3.796696
56.90206,109.6173,-0.06884526,0.9896896,3.796696
56.95079,109.2358,-0.0718217,0.9896896,3.796696
57.00027,99.95398,-0.0718217,0.9896896,3.803155
57.0507,92.7065,-0.06884526,0.9896896,3.803155
57.10136,85.58618,-0.0718217,0.9898543,3.803155
57.15216,84.18755,-0.06884526,0.9896896,3.803155
57.20057,84.18755,-0.0718217,0.9896896,3.809614
57.25057,146.8718,-0.0718217,0.9898543,3.809614
57.30097,144.7103,-0.0718217,0.9896896,3.809614
57.3518,131.8683,-0.0718217,0.9898543,3.809614
57.40162,115.339,-0.06884526,0.9896896,3.816073
57.45034,109.2358,-0.06884526,0.9896896,3.809614
57.5013,109.4901,-0.06884526,0.9896896,3.816073
57.55082,110.1259,-0.06884526,0.9896896,3.816073
57.60161,100.844,-0.0718217,0.9896896,3.816073
57.65131,91.05358,-0.06884526,0.9798071,3.822533
57.70082,86.09478,-0.06884526,0.9798071,3.816073
57.75111,83.55181,-0.06884526,0.9798071,3.822533
57.80086,82.15317,-0.0718217,0.9798071,3.822533
57.85213,127.1638,-0.0718217,0.9796425,3.816073
57.90209,149.1605,-0.06884526,0.9796425,3.828992
57.95061,143.3117,-0.0718217,0.9799718,3.822533
58.00061,131.4868,-0.0718217,0.9798071,3.822533
58.05061,117.5005,-0.06884526,0.9798071,3.828992
58.10161,112.1602,-0.0718217,0.9798071,3.828992
58.15133,111.6517,-0.06884526,0.9796425,3.828992
58.2015,111.1431,-0.0718217,0.9796425,3.828992
58.25132,95.63092,-0.0718217,0.9796425,3.828992
58.30133,92.19792,-0.0718217,0.9798071,3.828992
58.35249,84.44184,-0.06884526,0.9896896,3.828992
58.40161,83.17036,-0.06884526,0.9896896,3.828992
58.45031,94.74089,-0.0718217,0.9898543,3.835451
58.50032,144.2017,-0.06884526,0.9896896,3.835451
58.5511,148.9062,-0.06884526,0.9898543,3.835451
58.60194,143.4388,-0.0718217,0.9896896,3.828992
58.65165,128.8167,-0.06884526,0.9898543,3.835451
58.70033,116.1019,-0.06884526,0.9896896,3.835451
58.75028,112.796,-0.06884526,0.9896896,3.835451
58.80069,112.796,-0.06884526,0.9896896,3.835451
58.85194,110.7616,-0.06884526,0.9896896,3.835451
58.90156,96.26666,-0.0718217,0.989525,3.835451
58.95033,89.5278,-0.0718217,0.9898543,3.835451
59.00131,85.33189,-0.06884526,0.9798071,3.84191
59.05137,78.59301,-0.0718217,0.9796425,3.835451
59.1013,86.73053,-0.0718217,0.9796425,3.84191
59.15131,122.9679,-0.0718217,0.9796425,3.835451
59.20033,149.5419,-0.06884526,0.9796425,3.84191
59.25113,141.7859,-0.06884526,0.9796425,3.84191
59.30121,130.8511,-0.06884526,0.9796425,3.84191
59.35213,116.7376,-0.06884526,0.9798071,3.835451
59.40141,109.1087,-0.0718217,0.9796425,3.835451
59.45109,108.2186,-0.06884526,0.9796425,3.84191
59.50085,107.3286,-0.0718217,0.9798071,3.84191
59.55085,106.1843,-0.06884526,0.9796425,3.84191
59.60128,89.65494,-0.0718217,0.9798071,3.84191
59.65184,82.53461,-0.06884526,0.9796425,3.84191
59.7006,81.00883,-0.06884526,0.9796425,3.84191
59.75032,78.46587,-0.06884526,0.9796425,3.835451
59.80073,93.34225,-0.06586661,0.9798071,3.84191
59.85207,145.8546,-0.0718217,0.9796425,3.835451
59.90192,145.0918,-0.06884526,0.9796425,3.84191
59.95037,131.2325,-0.06884526,0.9798071,3.828992
60.00077,118.8991,-0.06884526,0.9796425,3.822533
60.05043,102.7513,-0.0718217,0.9796425,3.84191
60.10143,103.8956,-0.0718217,0.9796425,3.854828
60.15241,105.5485,-0.0718217,0.9796425,3.848369
60.20073,107.3286,-0.06884526,0.9796425,3.848369
60.25131,92.07076,-0.06884526,0.9796425,3.84191
60.30136,85.71333,-0.06884526,0.9798071,3.828992
60.35246,81.77173,-0.06884526,0.9896896,3.835451
60.40163,77.83012,-0.06884526,0.9896896,3.828992
60.451,95.88522,-0.0718217,0.9896896,3.828992
60.50044,139.6244,-0.0718217,0.9896896,3.835451
60.55143,143.0574,-0.0718217,0.9896896,3.835451
60.60205,122.205,-0.0718217,0.9896896,3.835451
60.65168,109.363,-0.0718217,0.9896896,3.835451
60.70068,102.497,-0.06884526,0.9898543,3.84191
60.7508,101.8612,-0.06884526,0.9896896,3.84191
60.80143,104.0227,-0.06884526,0.9896896,3.835451
60.85202,103.6413,-0.06884526,0.9896896,3.835451
60.90209,88.5106,-0.0718217,0.9896896,3.835451
60.95085,84.82329,-0.0718217,0.9896896,3.835451
61.00139,81.00883,-0.06884526,0.9898543,3.828992
61.05082,90.41783,-0.06884526,0.9896896,3.835451
61.10155,142.5488,-0.06884526,0.9898543,3.828992
61.15155,144.456,-0.0718217,0.9896896,3.828992
61.20129,140.5144,-0.06884526,0.9896896,3.828992
61.25068,110.6345,-0.0718217,0.9896896,3.835451
61.30059,103.6413,-0.0718217,0.9896896,3.828992
61.35191,103.7684,-0.0718217,0.9896896,3.828992
61.40139,104.1499,-0.06884526,0.9898543,3.828992
61.45109,104.6585,-0.06884526,0.989525,3.828992
61.50107,90.79928,-0.0718217,0.9896896,3.828992
61.55092,86.98483,-0.0718217,0.9896896,3.828992
61.60229,80.37309,-0.06884526,0.9898543,3.822533
61.65242,91.94361,-0.06884526,0.989525,3.822533
61.70123,145.4732,-0.0718217,0.9896896,3.822533
61.75131,148.5248,-0.0718217,0.9898543,3.822533
61.80113,137.0814,-0.06884526,0.9896896,3.822533
61.85192,118.772,-0.0718217,0.989525,3.828992
61.90178,109.1087,-0.06884526,0.9896896,3.84191
61.95071,105.93,-0.0718217,0.9896896,3.835451
62.00062,106.1843,-0.0718217,0.9898543,3.816073
62.0504,106.4386,-0.06884526,0.9898543,3.816073
62.10171,92.19792,-0.06884526,0.989525,3.809614
62.15231,88.00201,-0.0718217,0.9898543,3.835451
62.20079,85.45904,-0.06884526,0.9896896,3.84191
62.2514,83.55181,-0.0718217,0.9896896,3.835451
62.30141,139.6244,-0.0718217,0.9896896,3.84191
62.35206,150.432,-0.06884526,0.9898543,3.84191
62.40154,141.5316,-0.06884526,0.9896896,3.828992
62.45091,122.7136,-0.0718217,0.9898543,3.816073
62.50071,112.5417,-0.0718217,0.989525,3.809614
62.55054,107.71,-0.0718217,0.9896896,3.809614
62.60139,107.2015,-0.06884526,0.9898543,3.803155
62.65175,109.2358,-0.06884526,0.9896896,3.803155
62.70042,95.50377,-0.0718217,0.9896896,3.803155
62.75067,89.14634,-0.0718217,0.9896896,3.803155
62.80117,83.29751,-0.06884526,0.9896896,3.809614
62.85176,81.39028,-0.06884526,0.9896896,3.809614
62.90192,104.5313,-0.06884526,0.989525,3.809614
62.9505,150.1777,-0.06884526,0.9896896,3.803155
63.00068,146.2361,-0.0718217,0.999737,3.809614
63.05127,130.5968,-0.0718217,0.9995722,3.809614
63.10192,116.3562,-0.06884526,0.9995722,3.803155
63.15237,108.6001,-0.06884526,0.999737,3.803155
63.20054,107.9643,-0.06884526,0.9995722,3.796696
63.25093,107.8372,-0.06884526,0.999737,3.796696
63.30079,107.3286,-0.0718217,0.999737,3.796696
63.35204,93.08795,-0.0718217,0.999737,3.803155
63.40168,86.47623,-0.06884526,0.999737,3.803155
63.45144,82.28033,-0.06884526,0.9995722,3.803155
63.50103,89.2735,-0.06884526,0.9995722,3.796696
63.55091,125.638,-0.06884526,0.999737,3.796696
63.60189,150.432,-0.06884526,0.9995722,3.796696
63.65202,141.913,-0.0718217,0.9995722,3.796696
63.70085,125.5108,-0.0718217,0.9995722,3.790237
63.75043,111.3974,-0.0718217,0.999737,3.796696
63.80033,105.8028,-0.06884526,0.9995722,3.790237
63.85137,105.2942,-0.06884526,0.9995722,3.796696
63.90205,106.9472,-0.0718217,0.9995722,3.790237
63.95143,96.90242,-0.0718217,0.999737,3.790237
64.00061,89.78209,-0.0718217,0.9999016,3.790237
64.05138,83.67896,-0.06884526,0.9995722,3.790237
64.10229,80.24594,-0.06884526,0.9995722,3.790237
64.15216,98.80965,-0.07480036,0.999737,3.790237
64.2014,111.6517,-0.0718217,0.9995722,3.790237
64.25076,144.9646,-0.06884526,0.9995722,3.783778
64.30115,126.2737,-0.0718217,0.9995722,3.790237
64.35242,109.363,-0.06884526,0.999737,3.783778
64.40228,103.1327,-0.06884526,0.999737,3.790237
64.4505,105.93,-0.07480036,0.9995722,3.783778
64.50132,106.82,-0.0718217,0.999737,3.783778
64.55128,106.5657,-0.07480036,0.999737,3.783778
64.60228,91.18073,-0.06884526,0.999737,3.803155
64.65135,87.62056,-0.06884526,0.999737,3.835451
64.70151,82.40748,-0.06884526,0.9995722,3.816073
64.7511,82.66177,-0.0718217,0.999737,3.796696
64.801,134.6656,-0.07480036,0.999737,3.790237
64.85178,149.6691,-0.0718217,0.999737,3.770859
64.90252,142.5488,-0.0718217,0.999737,3.757941
64.95132,120.9335,-0.0718217,0.9999016,3.783778
65.00104,111.0159,-0.0718217,0.999737,3.790237
65.05064,106.82,-0.06884526,0.9995722,3.803155
65.10257,106.5657,-0.06884526,0.999737,3.809614
65.15255,107.2015,-0.06884526,0.9995722,3.796696
65.20129,97.53816,-0.0718217,0.999737,3.777318
65.25085,89.5278,-0.06884526,0.9995722,3.770859
65.30054,86.34908,-0.06884526,0.9995722,3.751482
65.35155,79.86449,-0.0718217,0.999737,3.7644
65.40222,87.23911,-0.0718217,0.9995722,3.725645
65.45075,144.5831,-0.0718217,0.9995722,3.7644
65.50071,150.1777,-0.0718217,0.9995722,3.790237
65.55077,139.3701,-0.0718217,0.9995722,3.803155
65.60207,130.0882,-0.0718217,0.9999016,3.790237
65.652,112.796,-0.07480036,0.999737,3.725645
65.70061,110.5073,-0.06884526,0.9995722,3.745023
65.75074,110.5073,-0.0718217,0.999737,3.770859
65.80058,109.363,-0.0718217,0.999737,3.777318
65.85181,100.4626,-0.06884526,0.9995722,3.790237
65.90203,91.68932,-0.06884526,0.9995722,3.7644
65.95078,87.36626,-0.0718217,0.9995722,3.68689
66.00077,82.53461,-0.06884526,0.9995722,3.777318
66.05128,118.3905,-0.06884526,0.9995722,3.809614
66.1015,152.0849,-0.06884526,0.9995722,3.803155
66.15256,146.6175,-0.0718217,0.999737,3.777318
66.20132,143.3117,-0.0718217,0.9999016,3.7644
66.25131,122.205,-0.06884526,0.9995722,3.745023
66.30103,111.7788,-0.06884526,0.9995722,3.751482
66.35207,110.7616,-0.06884526,0.9995722,3.7644
66.40207,110.7616,-0.0718217,0.9995722,3.757941
66.45083,111.2702,-0.0718217,0.999737,3.751482
66.50129,95.63092,-0.06884526,0.999737,3.751482
66.55077,89.2735,-0.0718217,0.999737,3.745023
66.60206,88.00201,-0.06884526,0.999737,3.751482
66.652,81.77173,-0.0718217,0.999737,3.751482
66.70163,137.4628,-0.0718217,0.999737,3.745023
66.75127,150.0505,-0.0718217,0.999737,3.757941
66.80127,149.2876,-0.0718217,0.999737,3.751482
66.85155,130.2153,-0.06884526,0.9995722,3.757941
66.90157,117.8819,-0.06884526,0.999737,3.7644
66.95132,112.2874,-0.0718217,0.999737,3.757941
67.00131,111.906,-0.0718217,0.9995722,3.751482
67.05128,112.0331,-0.0718217,0.9995722,3.745023
67.10177,98.55534,-0.0718217,0.9995722,3.751482
67.15202,93.08795,-0.0718217,0.999737,3.751482
67.20052,88.38345,-0.0718217,0.9995722,3.745023
67.25051,84.3147,-0.06884526,0.9995722,3.745023
67.30132,85.58618,-0.0718217,0.9999016,3.751482
67.35143,137.3357,-0.06884526,0.999737,3.745023
67.40254,148.0162,-0.0718217,0.9995722,3.745023
67.45131,141.1501,-0.0718217,0.999737,3.745023
67.50163,123.8579,-0.0718217,0.999737,3.745023
67.55124,111.906,-0.06884526,0.999737,3.745023
67.60208,107.2015,-0.0718217,0.9995722,3.745023
67.65231,106.0571,-0.06884526,0.999737,3.745023
67.70106,107.71,-0.07480036,0.999737,3.738563
67.75118,96.26666,-0.06884526,0.999737,3.745023
67.80115,89.40065,-0.06884526,0.999737,3.745023
67.85199,83.04321,-0.0718217,0.9995722,3.745023
67.90187,81.00883,-0.0718217,0.9995722,3.738563
67.95129,93.08795,-0.06884526,0.999737,3.745023
68.00117,145.4732,-0.0718217,0.999737,3.745023
68.05131,143.4388,-0.0718217,0.999737,3.745023
68.10191,122.9679,-0.06884526,0.9995722,3.738563
68.15169,113.5589,-0.0718217,0.999737,3.738563
68.20155,107.8372,-0.06884526,0.9995722,3.745023
68.25151,106.9472,-0.0718217,0.9995722,3.745023
68.3013,106.5657,-0.06884526,0.9995722,3.725645
68.35143,98.55534,-0.0718217,0.999737,3.738563
68.40255,90.79928,-0.06884526,0.999737,3.738563
68.45129,85.07759,-0.06884526,0.9995722,3.732104
68.5014,82.28033,-0.06884526,0.999737,3.738563
68.5513,93.978,-0.0718217,0.999737,3.738563
68.60252,141.7859,-0.0718217,0.999737,3.732104
68.65255,145.2189,-0.06884526,0.999737,3.732104
68.70116,131.7411,-0.0718217,0.9995722,3.745023
68.75089,117.3734,-0.0718217,0.999737,3.732104
68.80086,107.9643,-0.06884526,0.9995722,3.732104
68.85175,105.8028,-0.06884526,0.999737,3.732104
68.90242,106.1843,-0.06884526,0.9995722,3.725645
68.95097,99.57254,-0.06884526,0.999737,3.725645
69.0013,89.65494,-0.06884526,0.999737,3.732104
69.05051,87.11198,-0.0718217,0.9995722,3.732104
69.10247,80.50024,-0.0718217,0.999737,3.738563
69.1516,88.00201,-0.0718217,0.999737,3.738563
69.20129,98.9368,-0.0718217,0.999737,3.725645
69.2513,146.6175,-0.06884526,0.999737,3.725645
69.30129,137.8443,-0.06884526,0.9995722,3.732104
69.35143,126.4009,-0.0718217,0.9999016,3.719186
69.40165,114.3218,-0.06884526,0.999737,3.732104
69.45053,108.9815,-0.06884526,0.9995722,3.725645
69.50132,108.6001,-0.0718217,0.9995722,3.725645
69.55103,108.8544,-0.0718217,0.999737,3.725645
69.60229,99.06393,-0.0718217,0.999737,3.725645
69.65169,93.978,-0.0718217,0.999737,3.725645
69.70129,82.78893,-0.06884526,0.9995722,3.719186
69.75101,83.93326,-0.0718217,0.999737,3.725645
69.80102,123.2222,-0.0718217,0.9995722,3.719186
69.85212,149.9234,-0.06884526,0.999737,3.712727
69.90202,147.6347,-0.0718217,0.999737,3.719186
69.95067,134.6656,-0.0718217,0.999737,3.719186
70.00153,122.9679,-0.06884526,0.999737,3.725645
70.05132,110.8888,-0.06884526,0.999737,3.719186
70.10202,108.8544,-0.07480036,0.9995722,3.719186
70.15158,109.6173,-0.06884526,0.9999016,3.712727
70.20117,99.95398,-0.06884526,0.9995722,3.719186
70.25141,92.7065,-0.0718217,0.9995722,3.719186
70.30078,87.11198,-0.0718217,0.999737,3.719186
70.35154,83.42466,-0.0718217,0.999737,3.719186
70.40266,81.26313,-0.06884526,0.9995722,3.719186
70.45134,95.75809,-0.0718217,0.999737,3.719186
70.50077,147.1261,-0.0718217,0.999737,3.719186
70.55046,146.999,-0.0718217,0.999737,3.706268
70.60254,136.4456,-0.0718217,0.999737,3.712727
70.65266,121.8235,-0.06884526,0.999737,3.712727
70.70116,109.363,-0.06884526,0.999737,3.712727
70.75071,106.4386,-0.0718217,0.999737,3.712727
70.80154,106.6929,-0.0718217,0.9995722,3.712727
70.85149,106.9472,-0.0718217,0.999737,3.712727
70.90263,93.59654,-0.0718217,0.9995722,3.712727
70.9505,85.45904,-0.06884526,0.999737,3.712727
71.00143,82.66177,-0.0718217,0.9999016,3.706268
71.05076,78.21156,-0.06884526,0.999737,3.712727
71.10233,91.56216,-0.0718217,0.999737,3.699808
71.152,140.3873,-0.0718217,0.9999016,3.699808
71.20082,147.2533,-0.0718217,0.9995722,3.706268
71.25066,128.5624,-0.0718217,0.9995722,3.712727
71.30137,110.1259,-0.0718217,0.999737,3.706268
71.35195,106.5657,-0.0718217,0.999737,3.712727
71.40262,106.0571,-0.0718217,0.999737,3.706268
71.45129,105.4214,-0.06884526,0.999737,3.706268
71.50129,105.6757,-0.06884526,0.9995722,3.699808
71.55072,90.92643,-0.0718217,0.9995722,3.699808
71.60165,86.98483,-0.06884526,0.999737,3.706268
71.65154,81.13599,-0.06884526,0.9995722,3.699808
71.70084,79.48306,-0.0718217,0.999737,3.699808
71.75071,112.796,-0.0718217,0.999737,3.699808
71.80149,146.8718,-0.06884526,0.9995722,3.706268
71.85249,139.3701,-0.0718217,0.9995722,3.699808
71.90189,114.5761,-0.0718217,0.9995722,3.699808
71.95107,103.7684,-0.0718217,0.999737,3.699808
72.00053,98.9368,-0.0718217,0.999737,3.706268
72.05149,101.4798,-0.0718217,0.9995722,3.699808
72.10224,103.8956,-0.06884526,0.9995722,3.699808
72.15176,98.1739,-0.0718217,0.999737,3.706268
72.20061,90.92643,-0.0718217,0.999737,3.699808
72.25062,82.28033,-0.0718217,0.9995722,3.699808
72.30137,77.95727,-0.0718217,0.9995722,3.699808
72.35245,78.72016,-0.06884526,0.999737,3.699808
72.40199,146.2361,-0.06884526,0.999737,3.693349
72.45078,145.346,-0.06586661,0.9995722,3.699808
72.50078,122.0779,-0.06884526,0.999737,3.699808
72.55146,111.906,-0.0718217,0.999737,3.699808
72.60174,105.0399,-0.0718217,0.999737,3.693349
72.65261,105.6757,-0.0718217,0.999737,3.699808
72.70118,106.1843,-0.0718217,0.999737,3.699808
72.75098,104.9128,-0.06884526,0.9999016,3.693349
72.80053,92.45221,-0.06884526,0.9995722,3.693349
72.85178,86.85767,-0.0718217,0.999737,3.693349
72.90177,79.99165,-0.0718217,0.999737,3.693349
72.95052,91.68932,-0.06884526,0.999737,3.693349
73.00063,148.0162,-0.0718217,0.9995722,3.693349
73.05157,149.1605,-0.06884526,0.9999016,3.693349
73.10225,140.6415,-0.0718217,0.9995722,3.693349
73.15225,122.5864,-0.0718217,0.999737,3.693349
73.20056,112.1602,-0.0718217,0.999737,3.693349
73.25074,108.9815,-0.0718217,0.999737,3.693349
73.3006,109.6173,-0.06884526,0.999737,3.693349
73.35152,109.6173,-0.0718217,0.999737,3.693349
73.40226,95.75809,-0.0718217,0.999737,3.693349
73.45102,90.41783,-0.0718217,0.9995722,3.693349
73.50112,86.22193,-0.06884526,0.9995722,3.68689
73.55101,82.53461,-0.07480036,0.999737,3.68689
73.60193,124.4937,-0.06884526,0.999737,3.68689
73.65167,152.7207,-0.0718217,0.999737,3.68689
73.70126,150.9406,-0.06884526,0.9995722,3.693349
73.7514,133.6484,-0.0718217,0.999737,3.693349
73.80099,119.7892,-0.0718217,0.9999016,3.68689
73.85204,111.906,-0.0718217,0.9995722,3.693349
73.90177,110.6345,-0.06884526,0.999737,3.693349
73.95052,111.1431,-0.06884526,0.999737,3.680431
74.00124,110.3802,-0.0718217,0.9995722,3.68689
74.05048,94.2323,-0.0718217,0.999737,3.68689
74.10173,87.62056,-0.06884526,0.9995722,3.680431
74.15273,83.55181,-0.06884526,0.999737,3.68689
74.20053,81.51743,-0.0718217,0.999737,3.680431
74.25152,125.7652,-0.06884526,0.9995722,3.680431
74.30137,150.0505,-0.0718217,0.999737,3.680431
74.35248,142.6759,-0.06884526,0.999737,3.680431
74.40273,123.3493,-0.07480036,0.9999016,3.680431
74.45131,114.1946,-0.0718217,0.999737,3.680431
74.50124,108.0915,-0.0718217,0.9995722,3.680431
74.55125,107.71,-0.06884526,0.999737,3.68689
74.60222,108.9815,-0.06884526,0.999737,3.68689
74.65201,98.1739,-0.0718217,0.9999016,3.68689
74.70052,91.94361,-0.0718217,0.9995722,3.680431
74.75124,86.47623,-0.0718217,0.999737,3.680431
74.80058,83.04321,-0.0718217,0.999737,3.680431
74.85172,89.14634,-0.0718217,0.999737,3.680431
74.90258,146.4904,-0.0718217,0.9995722,3.680431
74.9516,146.8718,-0.06884526,0.999737,3.68689
75.00082,129.4525,-0.0718217,0.999737,3.693349
75.05112,114.3218,-0.06884526,0.9995722,3.693349
75.10213,106.5657,-0.0718217,0.999737,3.68689
75.15221,106.9472,-0.06586661,0.9995722,3.680431
75.20131,107.0743,-0.06884526,0.999737,3.667513
75.25148,103.1327,-0.0718217,0.999737,3.680431
75.30097,92.7065,-0.0718217,0.999737,3.680431
75.35273,89.78209,-0.0718217,0.999737,3.68689
75.40151,82.15317,-0.06884526,0.999737,3.699808
75.45084,80.88168,-0.0718217,0.999737,3.699808
75.5006,115.339,-0.06884526,0.9995722,3.693349
75.55076,145.346,-0.06884526,0.999737,3.68689
75.60272,145.0918,-0.06884526,0.999737,3.68689
75.65174,119.7892,-0.0718217,0.9999016,3.68689
75.70098,106.5657,-0.0718217,0.999737,3.68689
75.7506,104.6585,-0.06884526,0.9999016,3.680431
75.80147,107.4557,-0.06884526,0.999737,3.680431
75.85213,106.9472,-0.0718217,0.999737,3.673972
75.90172,93.59654,-0.0718217,0.9995722,3.680431
75.95119,89.65494,-0.06884526,0.9999016,3.680431
76.00111,84.95044,-0.06586661,0.999737,3.680431
76.05059,79.48306,-0.0718217,0.999737,3.680431
76.10259,100.7169,-0.06884526,0.999737,3.68689
76.15251,141.5316,-0.06884526,0.999737,3.68689
76.20093,148.7791,-0.0718217,0.999737,3.680431
76.25076,137.2085,-0.06884526,0.9995722,3.680431
76.30071,119.9163,-0.06884526,0.9995722,3.680431
76.35197,110.3802,-0.0718217,0.9995722,3.680431
76.40184,109.2358,-0.06884526,0.999737,3.673972
76.45071,108.2186,-0.06884526,0.9995722,3.673972
76.50175,108.2186,-0.06884526,0.9995722,3.673972
76.55163,94.10515,-0.06884526,0.999737,3.673972
76.60175,91.68932,-0.06884526,0.999737,3.673972
76.65196,82.78893,-0.06884526,0.999737,3.673972
76.70171,80.11879,-0.06884526,0.9995722,3.673972
76.7513,101.7341,-0.0718217,0.999737,3.673972
76.80084,148.6519,-0.06884526,0.9995722,3.667513
76.85172,147.889,-0.0718217,0.999737,3.673972
76.90171,134.6656,-0.06884526,0.999737,3.667513
76.95148,115.7204,-0.0718217,0.9999016,3.673972
77.00147,109.4901,-0.06884526,0.999737,3.667513
77.05154,107.8372,-0.06884526,0.9995722,3.667513
77.1026,107.71,-0.0718217,0.999737,3.667513
77.15196,109.7444,-0.06884526,0.999737,3.667513
77.20143,96.26666,-0.06884526,0.999737,3.673972
77.25093,90.16354,-0.06884526,0.999737,3.667513
77.30099,85.71333,-0.06884526,0.999737,3.667513
77.35226,80.50024,-0.0718217,0.999737,3.667513
77.40198,97.79247,-0.0718217,0.9999016,3.667513
77.45103,150.6863,-0.06884526,0.999737,3.667513
77.50106,146.3632,-0.0718217,0.9995722,3.667513
77.55078,131.9954,-0.06884526,0.999737,3.667513
77.60181,119.4077,-0.06884526,0.9995722,3.667513
77.65226,111.6517,-0.0718217,0.999737,3.667513
77.70108,107.9643,-0.06884526,0.9995722,3.667513
77.75102,109.1087,-0.06884526,0.999737,3.667513
77.80092,110.6345,-0.0718217,0.999737,3.667513
77.85171,94.48659,-0.0718217,0.9995722,3.667513
77.90248,89.65494,-0.06884526,0.999737,3.667513
77.95131,83.93326,-0.07480036,0.999737,3.667513
78.00095,81.00883,-0.06884526,0.9999016,3.661053
78.05144,86.73053,-0.0718217,0.999737,3.661053
78.10162,141.6587,-0.0718217,0.999737,3.661053
78.15162,148.1433,-0.0718217,0.999737,3.661053
78.20145,148.5248,-0.06884526,0.999737,3.661053
78.25095,122.7136,-0.06884526,0.9995722,3.661053
78.30062,113.8132,-0.0718217,0.999737,3.661053
78.35182,109.7444,-0.06884526,0.999737,3.667513
78.40182,110.253,-0.06884526,0.999737,3.661053
78.45161,110.7616,-0.0718217,0.999737,3.661053
78.50121,98.04675,-0.06884526,0.9995722,3.661053
78.55132,91.68932,-0.06884526,0.999737,3.661053
78.60232,89.78209,-0.0718217,0.9999016,3.661053
78.65218,87.11198,-0.06884526,0.999737,3.661053
78.70112,82.66177,-0.06884526,0.999737,3.661053
78.75159,90.92643,-0.06884526,0.9999016,3.661053
78.80128,145.4732,-0.0718217,0.999737,3.661053
78.85218,145.4732,-0.0718217,0.9995722,3.661053
78.90271,132.1226,-0.06884526,0.999737,3.661053
78.95097,112.6688,-0.0718217,0.999737,3.661053
79.00099,105.6757,-0.06884526,0.999737,3.661053
79.05093,108.7272,-0.06884526,0.9999016,3.661053
79.1027,110.5073,-0.06884526,0.999737,3.661053
79.15243,109.2358,-0.0718217,0.999737,3.661053
79.2007,95.63092,-0.06884526,0.999737,3.654594
79.25177,88.12916,-0.0718217,0.9999016,3.661053
79.30098,85.96764,-0.0718217,0.999737,3.661053
79.35174,84.95044,-0.06884526,0.999737,3.661053
79.40174,93.59654,-0.0718217,0.9995722,3.654594
79.45129,146.1089,-0.06884526,0.999737,3.661053
79.50095,147.3804,-0.06884526,0.9995722,3.661053
79.55059,130.9782,-0.06884526,0.999737,3.661053
79.60192,119.4077,-0.06884526,0.9995722,3.661053
79.65179,109.7444,-0.06884526,0.999737,3.661053
79.70074,109.4901,-0.0718217,0.9995722,3.661053
79.75082,109.2358,-0.06884526,0.999737,3.654594
79.80121,100.5897,-0.0718217,0.999737,3.654594
79.85242,94.61374,-0.06884526,0.999737,3.661053
79.90157,89.78209,-0.06884526,0.999737,3.661053
79.95095,84.82329,-0.0718217,0.999737,3.661053
80.00169,83.80611,-0.06884526,0.999737,3.661053
80.05133,98.80965,-0.06884526,0.999737,3.661053
80.10265,144.3289,-0.06884526,0.999737,3.661053
80.15273,150.432,-0.06884526,0.999737,3.654594
80.20143,146.6175,-0.0718217,0.999737,3.654594
80.25107,124.2394,-0.0718217,0.999737,3.661053
80.30082,111.7788,-0.06884526,0.9995722,3.661053
80.35194,108.8544,-0.06884526,0.999737,3.661053
80.40174,109.7444,-0.06884526,0.999737,3.654594
80.45126,111.1431,-0.06884526,0.999737,3.661053
80.50108,95.50377,-0.06884526,0.999737,3.661053
80.5517,90.41783,-0.06884526,0.9999016,3.654594
80.60172,87.74771,-0.0718217,0.9995722,3.661053
80.65271,82.66177,-0.06884526,0.999737,3.654594
80.70151,79.61021,-0.06884526,0.999737,3.661053
80.75123,116.9919,-0.0718217,0.9999016,3.654594
80.80121,151.0677,-0.0718217,0.9999016,3.654594
80.85242,146.1089,-0.06884526,0.999737,3.654594
80.90217,134.4113,-0.06884526,0.9995722,3.654594
80.95129,120.9335,-0.0718217,0.9999016,3.654594
81.00094,112.2874,-0.0718217,0.9999016,3.654594
81.05069,110.5073,-0.06884526,0.9995722,3.654594
81.10241,110.1259,-0.06884526,0.999737,3.654594
81.15219,110.5073,-0.0718217,0.999737,3.654594
81.20171,96.77527,-0.06884526,0.999737,3.654594
81.25172,90.41783,-0.06884526,0.999737,3.654594
81.30116,88.12916,-0.06884526,0.999737,3.654594
81.3525,81.26313,-0.0718217,0.9999016,3.654594
81.40221,78.84731,-0.06884526,0.999737,3.654594
81.45097,98.42819,-0.0718217,0.999737,3.654594
81.5007,149.1605,-0.06884526,0.999737,3.654594
81.5517,141.7859,-0.0718217,0.999737,3.654594
81.60268,122.9679,-0.06884526,0.999737,3.654594
81.65269,111.5245,-0.0718217,0.999737,3.654594
81.70107,106.9472,-0.06884526,0.9995722,3.648135
81.75123,108.6001,-0.06884526,0.9999016,3.654594
81.80095,109.7444,-0.0718217,0.999737,3.654594
81.8522,98.04675,-0.06884526,0.999737,3.654594
81.90191,91.94361,-0.0718217,0.999737,3.654594
81.95145,87.74771,-0.0718217,0.9999016,3.648135
82.00082,83.55181,-0.07480036,0.999737,3.654594
82.0507,80.37309,-0.06884526,0.999737,3.648135
82.10216,90.92643,-0.06884526,0.999737,3.654594
82.15166,127.7995,-0.0718217,0.999737,3.654594
82.20065,144.3289,-0.0718217,0.999737,3.648135
82.25144,131.3597,-0.0718217,0.999737,3.648135
82.30128,119.662,-0.06884526,0.999737,3.648135
82.35249,104.0227,-0.06884526,0.999737,3.648135
82.4024,104.0227,-0.06884526,0.999737,3.648135
82.45097,108.2186,-0.06884526,0.9995722,3.648135
82.50143,108.4729,-0.06884526,0.9999016,3.654594
82.55093,106.6929,-0.06884526,0.999737,3.648135
82.60206,89.0192,-0.06884526,0.999737,3.648135
82.65166,85.84048,-0.06586661,0.999737,3.648135
82.70155,81.64457,-0.0718217,0.999737,3.648135
82.75143,79.10161,-0.06884526,0.999737,3.648135
82.80122,130.8511,-0.06884526,0.9995722,3.648135
82.8521,146.3632,-0.06884526,0.999737,3.648135
82.90192,141.023,-0.06586661,0.999737,3.648135
82.95159,117.5005,-0.06884526,0.999737,3.648135
83.00147,104.6585,-0.06884526,0.999737,3.648135
83.05109,101.6069,-0.0718217,0.999737,3.648135
83.10281,108.6001,-0.06884526,0.999737,3.648135
83.15219,106.5657,-0.06884526,0.999737,3.648135
83.20122,96.26666,-0.06884526,0.9999016,3.648135
83.25122,90.41783,-0.0718217,0.9999016,3.648135
83.30156,84.69615,-0.06884526,0.9995722,3.648135
83.35261,81.51743,-0.06884526,0.9995722,3.648135
83.40281,86.22193,-0.06884526,0.9995722,3.648135
83.45116,123.2222,-0.0718217,0.9999016,3.648135
83.50114,149.0334,-0.06884526,0.9999016,3.648135
83.55135,139.4972,-0.06884526,0.999737,3.641676
83.60262,119.9163,-0.06884526,0.999737,3.648135
83.65234,109.9987,-0.06884526,0.999737,3.648135
83.70095,107.5829,-0.06884526,0.999737,3.648135
83.7518,107.71,-0.0718217,0.999737,3.648135
83.80146,109.363,-0.0718217,0.9995722,3.641676
83.85178,96.52097,-0.06884526,0.999737,3.641676
83.90266,90.79928,-0.0718217,0.999737,3.641676
83.95065,85.07759,-0.06884526,0.9999016,3.648135
84.00067,82.02603,-0.06884526,0.999737,3.641676
84.05118,98.42819,-0.06884526,0.9995722,3.641676
84.10217,137.9714,-0.06884526,0.999737,3.648135
84.15269,151.322,-0.06884526,0.999737,3.641676
84.20146,150.1777,-0.06884526,0.999737,3.641676
84.25146,122.0779,-0.07480036,0.9995722,3.641676
84.30109,112.4145,-0.0718217,0.9995722,3.641676
84.35266,111.2702,-0.06884526,0.999737,3.641676
84.40218,111.5245,-0.0718217,0.9999016,3.641676
84.45104,111.906,-0.06884526,0.999737,3.641676
84.50069,99.31824,-0.06884526,0.9995722,3.641676
84.551,92.7065,-0.0718217,0.999737,3.641676
84.60176,86.22193,-0.0718217,0.999737,3.641676
84.65194,83.67896,-0.06884526,0.999737,3.641676
84.7007,95.12233,-0.06884526,0.999737,3.641676
84.75149,108.0915,-0.06884526,0.999737,3.641676
84.80146,153.865,-0.06884526,0.999737,3.641676
84.85269,139.4972,-0.06884526,0.9995722,3.641676
84.90165,127.0366,-0.06884526,0.999737,3.641676
84.95111,115.2118,-0.06884526,0.999737,3.641676
85.00103,113.686,-0.06884526,0.999737,3.635217
85.05147,113.5589,-0.0718217,0.999737,3.641676
85.10222,112.796,-0.06884526,0.9995722,3.641676
85.15178,102.497,-0.06884526,0.999737,3.641676
85.20174,97.15671,-0.06884526,0.999737,3.641676
85.25175,90.54498,-0.0718217,0.999737,3.641676
85.30179,84.82329,-0.06884526,0.9995722,3.641676
85.35177,81.64457,-0.06586661,0.9999016,3.641676
85.40173,88.5106,-0.06884526,0.999737,3.635217
85.45111,146.6175,-0.06884526,0.9999016,3.635217
85.50092,150.1777,-0.06884526,0.9999016,3.641676
85.55075,127.4181,-0.06884526,0.9999016,3.635217
85.60195,117.119,-0.06884526,0.999737,3.635217
85.65189,114.3218,-0.06884526,0.999737,3.635217
85.70171,113.686,-0.0718217,0.999737,3.635217
85.75189,113.3046,-0.06586661,0.999737,3.641676
85.80078,105.8028,-0.0718217,0.999737,3.635217
85.85207,97.02956,-0.06884526,0.999737,3.635217
85.90192,93.978,-0.06884526,0.999737,3.635217
85.95071,88.12916,-0.0718217,0.999737,3.635217
86.00072,85.20473,-0.06884526,0.999737,3.635217
86.05077,92.32506,-0.0718217,0.999737,3.635217
86.1024,128.5624,-0.0718217,0.999737,3.635217
86.15199,147.7619,-0.06884526,0.9999016,3.641676
86.20172,141.023,-0.06884526,0.999737,3.635217
86.25174,121.0607,-0.06884526,0.9999016,3.641676
86.30173,109.1087,-0.06586661,0.999737,3.635217
86.35275,107.0743,-0.06884526,0.999737,3.635217
86.40188,109.7444,-0.06884526,0.999737,3.635217
86.45071,111.2702,-0.06884526,0.9995722,3.635217
86.50121,97.02956,-0.0718217,0.999737,3.635217
86.55114,91.94361,-0.06884526,0.9999016,3.635217
86.60171,87.49342,-0.06884526,0.999737,3.635217
86.6529,82.28033,-0.06884526,0.999737,3.635217
86.70172,88.5106,-0.06884526,0.999737,3.635217
86.75073,137.3357,-0.0718217,0.9999016,3.635217
86.80125,149.6691,-0.06884526,0.999737,3.635217
86.85233,130.4697,-0.06884526,0.9999016,3.628757
86.90245,119.9163,-0.06884526,0.9999016,3.635217
86.951,108.2186,-0.0718217,0.9999016,3.635217
87.00182,108.2186,-0.06586661,0.999737,3.635217
87.05171,110.5073,-0.0718217,0.999737,3.635217
87.10275,110.253,-0.06586661,0.999737,3.635217
87.15238,98.6825,-0.06884526,0.999737,3.628757
87.20165,92.57936,-0.06884526,0.999737,3.628757
87.25089,86.85767,-0.0718217,0.999737,3.635217
87.30075,84.82329,-0.06884526,0.9995722,3.628757
87.35233,86.73053,-0.06884526,0.9999016,3.635217
87.40187,135.6828,-0.06884526,0.999737,3.628757
87.45129,150.8134,-0.06884526,0.999737,3.628757
87.50115,142.2945,-0.06884526,0.999737,3.628757
87.55103,128.181,-0.06884526,0.999737,3.628757
87.60281,116.8647,-0.0718217,0.999737,3.628757
87.65212,111.6517,-0.06884526,0.999737,3.628757
87.7007,112.1602,-0.0718217,0.999737,3.628757
87.75079,112.9231,-0.06884526,0.999737,3.628757
87.80103,99.44539,-0.0718217,0.999737,3.628757
87.85211,93.46941,-0.0718217,0.999737,3.628757
87.90187,90.92643,-0.0718217,0.9999016,3.628757
87.95162,85.71333,-0.0718217,0.9999016,3.628757
88.00093,101.9884,-0.06884526,0.999737,3.628757
88.05128,143.566,-0.06884526,0.999737,3.628757
88.10289,151.5763,-0.06884526,0.999737,3.628757
88.15209,142.2945,-0.06884526,0.9999016,3.628757
88.20119,130.5968,-0.0718217,0.999737,3.628757
88.25151,116.3562,-0.0718217,0.999737,3.628757
88.3014,113.0503,-0.06884526,0.999737,3.628757
88.35265,112.2874,-0.0718217,0.999737,3.628757
88.40289,113.5589,-0.06884526,0.999737,3.622298
88.45144,97.28386,-0.0718217,0.999737,3.622298
88.50091,92.7065,-0.06884526,0.999737,3.622298
88.55087,89.90925,-0.0718217,0.9999016,3.628757
88.60294,85.07759,-0.06884526,0.9995722,3.628757
88.65247,83.42466,-0.06884526,0.999737,3.622298
88.70139,101.6069,-0.0718217,0.999737,3.622298
88.75088,152.8478,-0.06884526,0.999737,3.628757
88.80151,150.8134,-0.06884526,0.999737,3.622298
88.85239,133.0126,-0.06884526,0.999737,3.628757
88.90186,123.4765,-0.06884526,0.9999016,3.628757
88.95189,116.7376,-0.06884526,0.999737,3.628757
89.00195,114.8304,-0.06884526,0.999737,3.622298
89.05167,113.5589,-0.0718217,0.999737,3.622298
89.10223,104.4042,-0.06884526,0.999737,3.622298
89.15216,96.64812,-0.06884526,0.999737,3.622298
89.20098,91.56216,-0.0718217,0.999737,3.628757
89.25168,87.23911,-0.06884526,0.999737,3.622298
89.30169,85.07759,-0.06884526,0.999737,3.622298
89.35191,81.89888,-0.0718217,0.999737,3.622298
89.40261,106.9472,-0.0718217,0.999737,3.622298
89.4509,149.7962,-0.06884526,0.999737,3.622298
89.50092,148.9062,-0.06884526,0.999737,3.622298
89.55164,124.4937,-0.0718217,0.9999016,3.622298
89.60285,117.5005,-0.0718217,0.999737,3.622298
89.65268,110.7616,-0.06884526,0.999737,3.622298
89.70139,110.5073,-0.0718217,0.999737,3.622298
89.75139,110.8888,-0.0718217,0.999737,3.622298
89.80108,109.7444,-0.0718217,0.999737,3.622298
89.85214,96.90242,-0.06884526,0.999737,3.622298
89.90184,88.89205,-0.06884526,0.9999016,3.615839
89.95127,86.98483,-0.0718217,0.9999016,3.622298
90.00191,83.04321,-0.06884526,0.999737,3.622298
90.05122,82.15317,-0.06884526,0.9999016,3.615839
90.10213,122.7136,-0.06884526,0.999737,3.615839
90.15211,148.2705,-0.0718217,0.999737,3.622298
90.20089,146.2361,-0.06884526,0.999737,3.622298
90.25175,116.229,-0.06586661,0.999737,3.622298
90.30143,107.9643,-0.06586661,0.9995722,3.615839
90.35243,106.5657,-0.0718217,0.9999016,3.622298
90.40236,108.4729,-0.06884526,0.9999016,3.615839
90.45139,108.8544,-0.06884526,0.999737,3.622298
90.50138,94.2323,-0.0718217,0.9999016,3.615839
90.55138,91.18073,-0.0718217,0.999737,3.622298
90.60197,89.2735,-0.06884526,0.999737,3.615839
90.65263,83.29751,-0.06884526,0.999737,3.615839
90.70141,82.02603,-0.06586661,0.999737,3.615839
90.75126,111.5245,-0.06884526,0.9999016,3.615839
90.80116,147.3804,-0.06884526,0.999737,3.615839
90.85236,141.5316,-0.06884526,0.999737,3.615839
90.9019,120.2978,-0.06884526,0.999737,3.615839
90.95177,110.5073,-0.06884526,0.999737,3.622298
91.00138,104.5313,-0.06884526,0.999737,3.615839
91.05167,108.0915,-0.06884526,0.9999016,3.615839
91.10184,109.363,-0.06884526,0.999737,3.615839
91.15176,104.4042,-0.0718217,0.999737,3.615839
91.20086,92.83366,-0.0718217,0.999737,3.622298
91.25101,88.12916,-0.06884526,0.9999016,3.615839
91.30161,84.3147,-0.0718217,0.999737,3.615839
91.35239,80.37309,-0.0718217,0.999737,3.615839
91.40209,90.79928,-0.06586661,0.9995722,3.615839
91.45151,149.4148,-0.06884526,0.999737,3.615839
91.50151,149.1605,-0.0718217,0.999737,3.615839
91.55151,126.528,-0.06884526,0.999737,3.615839
91.60276,117.8819,-0.0718217,0.9995722,3.615839
91.65192,112.796,-0.0718217,0.999737,3.615839
91.70187,110.8888,-0.06884526,0.999737,3.60938
91.75076,111.1431,-0.07480036,0.999737,3.615839
91.8015,109.7444,-0.06884526,0.999737,3.60938
91.85216,95.75809,-0.06884526,0.9995722,3.615839
91.90276,91.68932,-0.06586661,0.9999016,3.60938
91.9515,86.85767,-0.06884526,0.999737,3.615839
92.0012,80.37309,-0.06884526,0.9999016,3.615839
92.05148,102.6241,-0.06586661,0.999737,3.60938
92.102,150.9406,-0.06884526,0.999737,3.60938
92.1521,147.7619,-0.06884526,0.999737,3.60938
92.20077,145.0918,-0.06884526,0.9999016,3.615839
92.25108,119.4077,-0.06884526,0.9995722,3.615839
92.30164,112.4145,-0.0718217,0.999737,3.60938
92.35292,111.3974,-0.0718217,0.9999016,3.615839
92.40289,111.2702,-0.06884526,0.9995722,3.615839
92.45087,110.7616,-0.06884526,0.999737,3.60938
92.502,95.12233,-0.06884526,0.999737,3.60938
92.55089,91.30788,-0.06884526,0.9999016,3.60938
92.60297,86.85767,-0.06884526,0.9999016,3.60938
92.65263,81.77173,-0.06884526,0.999737,3.60938
92.70089,79.61021,-0.0718217,0.9999016,3.60938
92.75088,112.0331,-0.06884526,1.000066,3.60938
92.80165,151.322,-0.06884526,0.9999016,3.60938
92.85287,142.1673,-0.06884526,0.999737,3.60938
92.90214,124.6208,-0.0718217,0.999737,3.60938
92.95189,115.2118,-0.06884526,0.999737,3.60938
93.00174,109.363,-0.06884526,0.9999016,3.60938
93.0512,109.9987,-0.06884526,0.999737,3.60938
93.10254,111.6517,-0.06884526,0.999737,3.60938
93.15189,111.5245,-0.06884526,0.999737,3.60938
93.20159,97.02956,-0.06884526,0.999737,3.60938
93.25163,89.65494,-0.06586661,0.999737,3.60938
93.30122,83.93326,-0.06884526,0.9999016,3.60938
93.3524,86.22193,-0.06884526,0.9995722,3.60938
93.40254,120.6792,-0.06884526,0.999737,3.60938
93.45122,148.3976,-0.06586661,0.999737,3.60938
93.50171,142.6759,-0.06884526,0.999737,3.602921
93.55138,122.4593,-0.0718217,0.999737,3.60938
93.60262,110.6345,-0.06884526,0.999737,3.60938
93.65263,106.9472,-0.06884526,0.9999016,3.60938
93.70087,110.1259,-0.06586661,0.9995722,3.60938
93.75103,110.1259,-0.0718217,0.9999016,3.60938
93.80083,101.2255,-0.06884526,0.999737,3.60938
93.85184,92.7065,-0.0718217,0.999737,3.602921
93.90286,86.98483,-0.06884526,0.9995722,3.60938
93.95097,84.3147,-0.06884526,0.9999016,3.602921
94.00162,101.9884,-0.06884526,0.999737,3.60938
94.05112,145.2189,-0.06884526,0.999737,3.602921
94.10266,147.7619,-0.06884526,0.999737,3.60938
94.15188,123.8579,-0.06884526,0.999737,3.602921
94.2016,118.772,-0.06884526,0.999737,3.602921
94.25134,106.82,-0.06884526,0.9999016,3.602921
94.3013,108.6001,-0.06884526,0.999737,3.602921
94.35274,112.5417,-0.0718217,0.999737,3.602921
94.40273,100.5897,-0.06884526,0.999737,3.602921
94.45153,96.13953,-0.06884526,0.999737,3.602921
94.50118,90.16354,-0.0718217,0.999737,3.602921
94.55186,86.22193,-0.06884526,0.999737,3.602921
94.60197,95.12233,-0.06884526,0.999737,3.602921
94.65266,143.0574,-0.06884526,0.999737,3.602921
94.70197,150.432,-0.06884526,0.9999016,3.60938
94.75098,137.8443,-0.0718217,0.9999016,3.602921
94.80186,121.4421,-0.06884526,0.999737,3.602921
94.85188,112.6688,-0.06586661,0.999737,3.602921
94.90184,110.7616,-0.06884526,0.9995722,3.602921
94.95172,111.5245,-0.0718217,0.9999016,3.602921
95.0012,112.2874,-0.0718217,0.999737,3.602921
95.05087,100.844,-0.06586661,0.999737,3.602921
95.10269,93.46941,-0.06884526,0.999737,3.602921
95.15199,90.79928,-0.0718217,0.999737,3.602921
95.20148,89.78209,-0.0718217,0.9999016,3.602921
95.25098,121.8235,-0.06884526,0.9995722,3.602921
95.30157,153.9921,-0.0718217,0.999737,3.602921
95.35226,147.1261,-0.06884526,0.999737,3.602921
95.40289,131.2325,-0.06884526,0.999737,3.602921
95.45125,120.9335,-0.06884526,0.999737,3.60938
95.50182,115.7204,-0.06884526,0.999737,3.60938
95.55173,116.3562,-0.06884526,0.999737,3.60938
95.60189,116.7376,-0.06884526,0.999737,3.602921
95.65213,103.387,-0.06884526,0.999737,3.60938
95.70162,95.12233,-0.06586661,0.999737,3.615839
95.75137,91.56216,-0.06884526,0.9999016,3.60938
95.80145,87.23911,-0.06884526,0.999737,3.615839
95.85261,103.1327,-0.0718217,0.999737,3.615839
95.90273,148.0162,-0.06884526,0.999737,3.615839
95.95132,152.5935,-0.0718217,0.999737,3.622298
96.00134,145.7275,-0.06884526,0.999737,3.622298
96.05171,132.3769,-0.06586661,0.9999016,3.622298
96.10236,120.2978,-0.0718217,0.9999016,3.628757
96.15262,118.1362,-0.06884526,0.999737,3.628757
96.20136,118.1362,-0.06884526,0.9995722,3.635217
96.25114,118.2634,-0.06884526,0.999737,3.635217
96.30121,100.9712,-0.06884526,0.999737,3.641676
96.35262,97.41101,-0.0718217,0.999737,3.641676
96.40262,91.18073,-0.0718217,0.999737,3.641676
96.45085,86.85767,-0.06884526,0.999737,3.648135
96.50158,103.5141,-0.06884526,0.999737,3.654594
96.55134,116.3562,-0.06884526,0.999737,3.654594
96.60248,152.5935,-0.0718217,0.9999016,3.661053
96.65285,138.2257,-0.06586661,0.999737,3.667513
96.70082,127.4181,-0.0718217,0.9999016,3.667513
96.75101,118.6448,-0.0718217,0.999737,3.673972
96.8009,117.119,-0.06884526,0.999737,3.680431
96.85195,116.9919,-0.0718217,0.999737,3.68689
96.90284,116.7376,-0.06884526,0.9995722,3.68689
96.95094,100.844,-0.0718217,0.9999016,3.693349
97.00089,97.41101,-0.0718217,0.9896896,3.699808
97.05089,91.56216,-0.06884526,0.9896896,3.699808
97.10206,89.65494,-0.06884526,0.9898543,3.706268
97.15237,85.07759,-0.06884526,0.9896896,3.712727
97.20115,86.22193,-0.0718217,0.9896896,3.712727
97.25086,152.4664,-0.0718217,0.9896896,3.719186
97.30172,148.2705,-0.06884526,0.9898543,3.725645
97.35214,133.6484,-0.06884526,0.9898543,3.725645
97.40211,118.2634,-0.06884526,0.9896896,3.732104
97.45084,113.0503,-0.0718217,0.9898543,3.738563
97.50119,114.4489,-0.0718217,0.9898543,3.738563
97.55101,115.5933,-0.06884526,0.9898543,3.745023
97.60213,115.339,-0.06884526,0.9896896,3.751482
97.65215,99.19109,-0.06884526,0.9999016,3.751482
97.70181,92.83366,-0.0718217,0.999737,3.757941
97.75101,87.74771,-0.06884526,0.9999016,3.757941
97.80201,85.96764,-0.0718217,0.9999016,3.7644
97.85188,100.3354,-0.06884526,0.999737,3.770859
97.90268,147.3804,-0.06884526,0.9995722,3.777318
97.95113,145.7275,-0.0718217,0.999737,3.777318
98.00089,128.181,-0.06884526,0.999737,3.783778
98.05089,116.3562,-0.06884526,0.999737,3.783778
98.10258,110.8888,-0.0718217,0.9995722,3.790237
98.15289,110.5073,-0.06884526,0.999737,3.790237
98.20101,112.0331,-0.06884526,0.999737,3.796696
98.25209,112.796,-0.0718217,0.999737,3.803155
98.30209,94.86804,-0.06884526,0.9995722,3.809614
98.35309,90.03638,-0.0718217,0.9898543,3.809614
98.40229,86.47623,-0.06884526,0.9896896,3.809614
98.45146,84.95044,-0.06884526,0.9896896,3.816073
98.50212,102.3698,-0.06884526,0.9896896,3.822533
98.55173,147.7619,-0.06884526,0.9898543,3.822533
98.60288,150.8134,-0.06884526,0.9898543,3.828992
98.65302,132.6312,-0.06884526,0.9896896,3.828992
98.70174,120.0435,-0.06586661,0.9896896,3.828992
98.75107,112.9231,-0.0718217,0.9896896,3.835451
98.80171,112.5417,-0.06884526,0.9896896,3.835451
98.85287,113.5589,-0.06884526,0.9896896,3.84191
98.90258,113.1774,-0.0718217,0.9896896,3.84191
98.95198,97.02956,-0.06884526,0.9898543,3.84191
99.00172,91.30788,-0.06884526,0.999737,3.848369
99.0517,88.38345,-0.07480036,0.999737,3.848369
99.10249,83.29751,-0.06884526,0.999737,3.854828
99.15257,80.88168,-0.06884526,0.9999016,3.854828
99.20134,124.2394,-0.06884526,0.999737,3.854828
99.25196,154.1193,-0.0718217,0.999737,3.854828
99.30188,147.5076,-0.06884526,0.999737,3.854828
99.35281,130.9782,-0.06884526,0.999737,3.854828
99.40237,121.1878,-0.0718217,0.999737,3.867747
99.45096,113.4317,-0.0718217,0.999737,3.867747
99.50185,112.4145,-0.06586661,0.999737,3.861288
99.55172,113.686,-0.06884526,0.999737,3.867747
99.60259,108.8544,-0.06884526,0.999737,3.867747
99.65238,95.37663,-0.06884526,0.9995722,3.861288
99.70087,91.94361,-0.06884526,0.999737,3.861288
99.75114,86.98483,-0.0718217,0.999737,3.854828
99.80113,82.78893,-0.06884526,0.9999016,3.848369
99.85257,84.0604,-0.07480036,0.9999016,3.867747
99.90257,143.6931,-0.0718217,0.9995722,3.874206
99.95137,153.9921,-0.06884526,0.999737,3.880665
100.0011,145.0918,-0.0718217,0.999737,3.887124
100.0518,127.6724,-0.0718217,0.999737,3.893583
100.1028,115.339,-0.06884526,0.999737,3.900043
100.1522,111.2702,-0.06884526,0.999737,3.880665
100.201,110.5073,-0.06586661,0.999737,3.867747
100.2518,106.4386,-0.0718217,0.999737,3.893583
100.3018,97.79247,-0.06884526,0.9995722,3.880665
100.3526,94.61374,-0.06884526,0.999737,3.887124
100.4029,86.85767,-0.06884526,0.999737,3.887124
100.4511,83.29751,-0.0718217,0.999737,3.887124
100.5014,81.51743,-0.0718217,0.999737,3.880665
100.5521,91.56216,-0.0718217,0.9995722,3.887124
100.6021,142.9302,-0.06884526,0.999737,3.887124
100.652,149.1605,-0.0718217,0.999737,3.880665
100.7021,129.3253,-0.06884526,0.9995722,3.880665
100.7511,114.8304,-0.0718217,0.999737,3.900043
100.8017,105.0399,-0.06586661,0.999737,3.900043
100.8526,106.5657,-0.0718217,0.999737,3.893583
100.9021,109.363,-0.06884526,0.9999016,3.893583
100.9521,109.9987,-0.06884526,0.999737,3.887124
101.0017,95.12233,-0.0718217,0.9999016,3.880665
101.0516,90.41783,-0.0718217,0.999737,3.854828
101.1021,83.17036,-0.06884526,0.999737,3.874206
101.152,79.73734,-0.0718217,0.999737,3.887124
101.2017,83.42466,-0.06884526,0.999737,3.900043
101.2516,143.3117,-0.06884526,0.999737,3.887124
101.3016,149.7962,-0.06884526,0.999737,3.893583
101.3526,127.4181,-0.0718217,0.9999016,3.893583
101.4022,111.906,-0.06884526,0.9995722,3.887124
101.452,102.7513,-0.06884526,0.999737,3.893583
101.502,105.0399,-0.0718217,0.9995722,3.893583
101.5518,108.6001,-0.06884526,0.9995722,3.900043
101.602,110.5073,-0.06884526,0.999737,3.893583
101.6528,92.7065,-0.06884526,0.999737,3.887124
101.7011,88.89205,-0.0718217,0.999737,3.893583
101.7511,81.00883,-0.0718217,0.999737,3.900043
101.8012,82.28033,-0.0718217,0.999737,3.900043
101.8528,116.229,-0.06884526,0.999737,3.900043
101.9028,152.0849,-0.06884526,0.999737,3.906502
101.9516,142.2945,-0.0718217,0.999737,3.900043
102.0014,126.528,-0.06884526,0.999737,3.900043
102.0518,106.9472,-0.06586661,0.999737,3.893583
102.1021,106.9472,-0.06884526,0.9995722,3.887124
102.1522,109.363,-0.0718217,0.999737,3.893583
102.2013,110.253,-0.06884526,0.9995722,3.893583
102.2512,98.1739,-0.0718217,0.999737,3.900043
102.3012,91.05358,-0.06884526,0.999737,3.900043
102.3523,86.98483,-0.06884526,0.999737,3.887124
102.4022,82.28033,-0.06884526,0.999737,3.887124
102.4516,94.2323,-0.06884526,0.999737,3.893583
102.5012,134.7927,-0.0718217,0.999737,3.900043
102.5511,151.9578,-0.06884526,0.999737,3.893583
102.6026,128.6896,-0.06586661,0.999737,3.893583
102.6526,121.9507,-0.06884526,0.999737,3.893583
102.7015,110.8888,-0.0718217,0.9995722,3.887124
102.7511,111.3974,-0.0718217,0.999737,3.893583
102.802,111.5245,-0.0718217,0.999737,3.893583
102.8528,109.6173,-0.06884526,0.9995722,3.887124
102.9026,96.13953,-0.06884526,0.999737,3.893583
102.9513,90.54498,-0.06884526,0.999737,3.893583
103.0018,88.5106,-0.0718217,0.999737,3.900043
103.0511,86.09478,-0.0718217,0.999737,3.893583
103.1021,121.0607,-0.0718217,0.9995722,3.887124
103.1526,157.1709,-0.0718217,0.999737,3.887124
103.2019,156.2808,-0.06884526,0.999737,3.887124
103.2509,126.9095,-0.0718217,0.999737,3.887124
103.3009,117.5005,-0.0718217,0.999737,3.84191
103.3526,113.3046,-0.06884526,0.9995722,3.874206
103.4024,112.796,-0.0718217,0.999737,3.874206
103.4517,113.9403,-0.0718217,0.999737,3.880665
103.502,102.1155,-0.0718217,0.9995722,3.887124
103.5518,97.41101,-0.06884526,0.999737,3.880665
103.6026,91.94361,-0.06884526,0.999737,3.874206
103.6523,85.58618,-0.06884526,0.999737,3.880665
103.7011,90.54498,-0.06884526,0.999737,3.874206
103.7514,152.0849,-0.06884526,0.999737,3.874206
103.8012,156.7894,-0.06884526,0.999737,3.880665
103.8529,134.7927,-0.06884526,0.9995722,3.880665
103.9026,127.7995,-0.0718217,0.9995722,3.880665
103.9518,114.8304,-0.0718217,0.999737,3.880665
104.0012,111.0159,-0.0718217,0.999737,3.880665
104.0511,111.1431,-0.0718217,0.999737,3.874206
104.1021,112.796,-0.0718217,0.9995722,3.867747
104.1521,98.42819,-0.06884526,0.999737,3.887124
104.2021,95.50377,-0.0718217,0.999737,3.874206
104.2512,89.5278,-0.06884526,0.9999016,3.887124
104.302,86.73053,-0.06884526,0.999737,3.880665
104.3521,97.53816,-0.06884526,0.999737,3.867747
104.4029,151.9578,-0.0718217,0.999737,3.854828
104.4518,156.9166,-0.06884526,0.999737,3.84191
104.5016,134.7927,-0.0718217,0.9995722,3.848369
104.5516,123.7308,-0.0718217,0.9995722,3.861288
104.6028,109.4901,-0.0718217,0.999737,3.867747
104.652,110.5073,-0.06884526,0.999737,3.867747
104.7021,113.1774,-0.06884526,0.999737,3.861288
104.7517,113.1774,-0.0718217,0.999737,3.861288
104.8015,97.15671,-0.06884526,0.999737,3.861288
104.8521,90.29069,-0.0718217,0.9999016,3.854828
104.9021,88.5106,-0.0718217,0.999737,3.854828
104.9521,86.85767,-0.06884526,0.999737,3.854828
105.0018,119.1534,-0.06884526,0.9995722,3.861288
105.0515,154.2464,-0.06884526,0.999737,3.854828
105.1021,142.1673,-0.0718217,0.9995722,3.848369
105.1521,118.3905,-0.06884526,0.9995722,3.848369
105.2018,113.5589,-0.0718217,0.999737,3.854828
105.2521,107.4557,-0.06884526,0.999737,3.867747
105.302,112.1602,-0.06884526,0.999737,3.803155
105.3521,114.5761,-0.06884526,0.999737,3.861288
105.4022,97.15671,-0.0718217,0.999737,3.848369
105.4511,89.14634,-0.06884526,0.9999016,3.848369
105.5018,87.36626,-0.06884526,0.9999016,3.84191
105.5519,86.47623,-0.06884526,0.9995722,3.84191
105.6028,122.5864,-0.06884526,0.999737,3.828992
105.653,155.8994,-0.0718217,0.999737,3.835451
105.7017,145.4732,-0.0718217,0.999737,3.84191
105.7514,123.7308,-0.0718217,0.999737,3.835451
105.8011,111.2702,-0.06884526,0.999737,3.84191
105.8528,108.3458,-0.0718217,0.999737,3.828992
105.9026,110.8888,-0.06884526,0.999737,3.835451
105.9513,113.3046,-0.06586661,0.999737,3.828992
106.0011,99.31824,-0.06884526,0.9999016,3.828992
106.0512,91.81647,-0.06884526,0.999737,3.828992
106.1026,88.63776,-0.06884526,0.999737,3.835451
106.1525,86.73053,-0.06884526,0.999737,3.828992
106.201,87.36626,-0.06884526,0.999737,3.828992
106.2518,160.9853,-0.06884526,0.999737,3.828992
106.3016,156.5351,-0.06586661,0.999737,3.828992
106.3524,131.2325,-0.06884526,0.999737,3.828992
106.4021,121.4421,-0.06884526,0.9999016,3.822533
106.4517,115.0847,-0.06884526,0.9995722,3.828992
106.5016,115.2118,-0.06884526,0.999737,3.822533
106.5511,116.3562,-0.0718217,0.999737,3.828992
106.6028,103.0055,-0.0718217,0.999737,3.816073
106.6524,97.15671,-0.06884526,0.999737,3.822533
106.702,89.40065,-0.06884526,0.999737,3.835451
106.7519,85.96764,-0.0718217,0.999737,3.828992
106.802,100.844,-0.0718217,0.9999016,3.822533
106.853,159.2052,-0.06884526,0.999737,3.816073
106.9025,158.4424,-0.0718217,0.999737,3.816073
106.9512,141.023,-0.0718217,0.999737,3.816073
107.0013,130.2153,-0.06884526,0.999737,3.816073
107.0519,117.7548,-0.06884526,0.999737,3.809614
107.103,117.3734,-0.0718217,0.999737,3.809614
107.1527,118.3905,-0.06884526,0.999737,3.809614
107.202,113.1774,-0.0718217,0.9999016,3.816073
107.251,99.31824,-0.06884526,0.999737,3.816073
107.3013,95.50377,-0.0718217,0.9995722,3.809614
107.3528,89.90925,-0.0718217,0.9999016,3.809614
107.4027,86.73053,-0.0718217,0.999737,3.809614
107.4512,116.9919,-0.06884526,0.999737,3.809614
107.5017,160.4767,-0.06884526,0.9995722,3.809614
107.5517,149.4148,-0.0718217,0.999737,3.803155
107.6031,133.1398,-0.06586661,0.9999016,3.803155
107.6529,119.662,-0.0718217,0.999737,3.803155
107.7013,114.8304,-0.0718217,0.9999016,3.803155
107.751,115.7204,-0.06884526,0.9999016,3.803155
107.801,116.7376,-0.0718217,0.9999016,3.803155
107.8521,101.2255,-0.06884526,0.999737,3.803155
107.9026,93.85085,-0.06884526,0.9995722,3.809614
107.9513,90.03638,-0.06884526,0.9999016,3.803155
108.0015,87.11198,-0.06586661,0.999737,3.803155
108.0512,83.29751,-0.07480036,0.999737,3.803155
108.1021,122.7136,-0.06884526,0.9995722,3.803155
108.1528,156.7894,-0.06884526,0.999737,3.803155
108.2015,155.2636,-0.06586661,0.999737,3.803155
108.2512,129.3253,-0.0718217,0.9995722,3.803155
108.3012,120.9335,-0.06586661,0.9999016,3.803155
108.3524,109.7444,-0.06884526,0.999737,3.803155
108.4031,113.9403,-0.0718217,0.999737,3.803155
108.4518,113.9403,-0.06884526,0.999737,3.803155
108.5017,108.9815,-0.06884526,0.9995722,3.796696
108.5517,95.37663,-0.0718217,0.9995722,3.796696
108.603,88.12916,-0.0718217,0.999737,3.796696
108.6532,84.3147,-0.0718217,0.9896896,3.796696
108.7011,83.17036,-0.06884526,0.9896896,3.803155
108.7513,123.7308,-0.06884526,0.9898543,3.803155
108.8019,153.7379,-0.0718217,0.9898543,3.803155
108.8532,139.4972,-0.06884526,0.9898543,3.796696
108.9028,117.5005,-0.06586661,0.9896896,3.796696
108.9517,108.7272,-0.0718217,0.9896896,3.796696
109.0015,106.9472,-0.07480036,0.9896896,3.796696
109.0517,112.2874,-0.06884526,0.9896896,3.796696
109.1023,112.0331,-0.06884526,0.9896896,3.796696
109.1531,103.6413,-0.0718217,0.9896896,3.796696
109.2018,91.56216,-0.06884526,0.9898543,3.796696
109.2516,88.89205,-0.06884526,0.9896896,3.796696
109.3019,83.67896,-0.06884526,0.9898543,3.796696
109.3526,118.2634,-0.06884526,0.9896896,3.796696
109.4026,155.2636,-0.0718217,0.9898543,3.796696
109.4514,150.0505,-0.0718217,0.9898543,3.796696
109.5018,126.7823,-0.0718217,0.9898543,3.796696
109.5519,115.4661,-0.07480036,0.9896896,3.796696
109.6031,109.1087,-0.06884526,0.9898543,3.796696
109.6532,109.6173,-0.06884526,0.9898543,3.796696
109.7015,111.1431,-0.06586661,0.9896896,3.796696
109.7517,107.0743,-0.0718217,0.9896896,3.790237
109.8017,94.74089,-0.0718217,0.9896896,3.790237
109.8528,87.36626,-0.0718217,0.9896896,3.790237
109.902,83.42466,-0.06884526,0.9896896,3.796696
109.9519,97.02956,-0.0718217,0.9898543,3.790237
110.0018,147.6347,-0.06884526,0.9896896,3.790237
110.0516,158.5695,-0.06586661,0.9896896,3.790237
110.1024,145.9818,-0.06586661,0.9896896,3.790237
110.1521,126.0195,-0.06884526,0.9896896,3.790237
110.202,120.4249,-0.06884526,0.9898543,3.790237
110.2519,112.2874,-0.06884526,0.989525,3.790237
110.3015,115.7204,-0.0718217,0.9896896,3.790237
110.3529,115.0847,-0.07480036,0.9896896,3.790237
110.4022,96.13953,-0.0718217,0.9896896,3.790237
110.4511,92.7065,-0.06884526,0.9898543,3.783778
110.5018,88.00201,-0.06884526,0.9896896,3.783778
110.5519,84.0604,-0.0718217,0.9896896,3.790237
110.603,96.77527,-0.0718217,0.9896896,3.790237
110.6528,159.4595,-0.06884526,0.9896896,3.783778
110.7017,152.3392,-0.06884526,0.9898543,3.790237
110.7516,130.5968,-0.06884526,0.9896896,3.783778
110.8014,122.7136,-0.0718217,0.9898543,3.783778
110.8528,112.0331,-0.06884526,0.9896896,3.783778
110.9031,112.4145,-0.0718217,0.9896896,3.783778
110.9515,113.686,-0.0718217,0.9898543,3.783778
111.0012,111.0159,-0.06884526,0.9896896,3.783778
111.0512,95.75809,-0.06884526,0.9896896,3.783778
111.1033,90.03638,-0.0718217,0.9896896,3.777318
111.1529,83.42466,-0.06884526,0.9896896,3.783778
111.2015,82.28033,-0.06884526,0.9898543,3.777318
111.2522,129.5796,-0.06884526,0.9896896,3.783778
111.3019,157.9338,-0.0718217,0.9896896,3.777318
111.3526,144.456,-0.06884526,0.9798071,3.777318
111.4025,126.2737,-0.0718217,0.9796425,3.783778
111.452,117.8819,-0.06586661,0.9796425,3.777318
111.5014,112.1602,-0.06884526,0.9796425,3.777318
111.5518,113.4317,-0.06884526,0.9796425,3.777318
111.603,113.8132,-0.06884526,0.9799718,3.777318
111.6531,97.28386,-0.06884526,0.9798071,3.777318
111.7013,93.978,-0.06884526,0.9796425,3.777318
111.752,88.89205,-0.06884526,0.9796425,3.777318
111.8018,84.82329,-0.0718217,0.9796425,3.777318
111.8531,101.7341,-0.0718217,0.9798071,3.770859
111.9022,129.3253,-0.06884526,0.9796425,3.777318
111.9514,154.3736,-0.06884526,0.9796425,3.770859
112.0013,129.7068,-0.06884526,0.9796425,3.770859
112.0511,116.6105,-0.06884526,0.9798071,3.777318
112.1032,107.5829,-0.0718217,0.9798071,3.770859
112.1528,109.4901,-0.0718217,0.9798071,3.777318
112.2015,112.1602,-0.06884526,0.9796425,3.770859
112.2515,114.7032,-0.0718217,0.9798071,3.770859
112.3012,96.64812,-0.06884526,0.9798071,3.770859
112.3524,92.7065,-0.0718217,0.9798071,3.7644
112.4023,86.60338,-0.0718217,0.9796425,3.770859
112.4511,82.91606,-0.06884526,0.9798071,3.770859
112.5022,135.3013,-0.06884526,0.9796425,3.770859
112.5514,155.8994,-0.0718217,0.9796425,3.770859
112.6023,145.346,-0.0718217,0.9798071,3.7644
112.6533,119.5349,-0.06884526,0.9796425,3.7644
112.702,109.8716,-0.0718217,0.9798071,3.770859
112.752,108.6001,-0.06884526,0.9796425,3.7644
112.8018,116.1019,-0.0718217,0.9798071,3.7644
112.8525,115.5933,-0.06884526,0.9796425,3.7644
112.9025,99.31824,-0.0718217,0.9794778,3.7644
112.9514,93.34225,-0.06884526,0.9798071,3.770859
113.0012,88.89205,-0.06884526,0.9796425,3.7644
113.0522,86.47623,-0.06884526,0.9796425,3.7644
113.1033,137.0814,-0.0718217,0.9796425,3.7644
113.1526,155.7722,-0.06884526,0.9798071,3.7644
113.2012,160.2224,-0.0718217,0.9798071,3.757941
113.2521,126.0195,-0.06884526,0.9796425,3.757941
113.302,116.1019,-0.06586661,0.9798071,3.7644
113.3525,111.7788,-0.06884526,0.9796425,3.757941
113.4023,112.5417,-0.06884526,0.9798071,3.757941
113.4517,114.0675,-0.0718217,0.9798071,3.7644
113.5013,110.8888,-0.0718217,0.9796425,3.7644
113.5515,95.63092,-0.06884526,0.9796425,3.7644
113.6022,92.32506,-0.06884526,0.9798071,3.757941
113.6528,84.69615,-0.06884526,0.9896896,3.757941
113.7013,100.3354,-0.06884526,0.9896896,3.757941
113.7513,154.2464,-0.06884526,0.9896896,3.757941
113.8012,159.5867,-0.06884526,0.9896896,3.757941
113.8521,140.2601,-0.0718217,0.9896896,3.7644
113.9028,132.7583,-0.06884526,0.989525,3.751482
113.9522,114.1946,-0.06884526,0.9896896,3.757941
114.0016,113.3046,-0.0718217,0.9896896,3.757941
114.0512,115.9747,-0.0718217,0.9896896,3.757941
114.1022,117.7548,-0.0718217,0.9896896,3.757941
114.153,100.7169,-0.0718217,0.9896896,3.757941
114.2018,98.9368,-0.06884526,0.9896896,3.751482
114.2518,89.2735,-0.06884526,0.9896896,3.757941
114.3016,84.18755,-0.0718217,0.9898543,3.751482
114.3533,116.229,-0.0718217,0.9896896,3.757941
114.403,162.3839,-0.06884526,0.9896896,3.751482
114.4518,158.0609,-0.0718217,0.9896896,3.751482
114.5016,140.3873,-0.06884526,0.9896896,3.751482
114.5521,123.8579,-0.06884526,0.9896896,3.751482
114.6028,116.9919,-0.0718217,0.9898543,3.751482
114.6525,116.3562,-0.06884526,0.9896896,3.751482
114.7013,117.6276,-0.06884526,0.9896896,3.751482
114.7514,116.229,-0.06884526,0.9896896,3.751482
114.8021,98.04675,-0.0718217,0.9896896,3.751482
114.8529,92.32506,-0.06884526,0.9896896,3.751482
114.9029,88.38345,-0.0718217,0.989525,3.751482
114.9514,86.22193,-0.0718217,0.9896896,3.751482
115.0013,92.7065,-0.06586661,0.9898543,3.751482
115.0512,151.8306,-0.06884526,0.9896896,3.751482
115.1033,157.1709,-0.06884526,0.9896896,3.751482
115.153,138.0986,-0.0718217,0.9896896,3.751482
115.2016,131.9954,-0.06884526,0.9896896,3.745023
115.2513,114.8304,-0.06884526,0.9896896,3.751482
115.3013,113.1774,-0.06884526,0.9896896,3.751482
115.3522,114.9575,-0.06884526,0.9896896,3.745023
115.4033,116.1019,-0.06884526,0.9896896,3.745023
115.4517,98.04675,-0.06884526,0.9896896,3.745023
115.5015,95.24948,-0.06586661,0.989525,3.745023
115.5523,89.14634,-0.0718217,0.9896896,3.745023
115.6029,84.82329,-0.0718217,0.9898543,3.751482
115.6533,87.36626,-0.0718217,0.9898543,3.745023
115.702,110.8888,-0.0718217,0.9896896,3.745023
115.7517,152.975,-0.0718217,0.9896896,3.745023
115.8023,150.6863,-0.06884526,0.9896896,3.745023
115.8523,127.1638,-0.0718217,0.9898543,3.745023
115.9025,113.4317,-0.0718217,0.989525,3.745023
115.9523,113.4317,-0.0718217,0.9896896,3.745023
116.0015,114.9575,-0.06884526,0.9896896,3.745023
116.0519,116.6105,-0.0718217,0.9896896,3.745023
116.1023,97.66531,-0.0718217,0.9896896,3.745023
116.1525,98.04675,-0.06884526,0.9896896,3.745023
116.2014,93.46941,-0.0718217,0.9896896,3.745023
116.2512,87.11198,-0.06884526,0.9896896,3.745023
116.3023,88.12916,-0.06884526,0.9896896,3.738563
116.353,145.2189,-0.06884526,0.9896896,3.745023
116.4026,155.0093,-0.06884526,0.9896896,3.738563
116.4512,136.4456,-0.0718217,0.9896896,3.745023
116.5023,119.4077,-0.0718217,0.9896896,3.745023
116.5523,107.2015,-0.06884526,0.9896896,3.738563
116.603,109.7444,-0.0718217,0.9898543,3.738563
116.653,112.0331,-0.06884526,0.9896896,3.738563
116.7019,115.4661,-0.0718217,0.9898543,3.738563
116.7523,94.86804,-0.06884526,0.9896896,3.738563
116.8018,92.57936,-0.0718217,0.9896896,3.738563
116.853,86.98483,-0.06884526,0.9896896,3.738563
116.9029,82.66177,-0.06884526,0.989525,3.738563
116.9514,92.96081,-0.06884526,0.9898543,3.738563
117.0018,147.5076,-0.06586661,0.9995722,3.738563
117.0513,158.6966,-0.06884526,0.999737,3.738563
117.1023,142.6759,-0.0718217,0.9995722,3.738563
117.1523,122.4593,-0.0718217,0.999737,3.738563
117.2018,111.7788,-0.0718217,0.999737,3.738563
117.2515,110.253,-0.06884526,0.999737,3.738563
117.3016,111.7788,-0.0718217,0.999737,3.738563
117.353,112.9231,-0.06884526,0.9995722,3.732104
117.4026,95.75809,-0.0718217,0.999737,3.732104
117.4521,90.79928,-0.06884526,0.999737,3.732104
117.5015,85.58618,-0.06884526,0.999737,3.732104
117.552,84.0604,-0.06884526,0.999737,3.732104
117.6025,99.06393,-0.0718217,0.9995722,3.732104
117.6524,142.5488,-0.06884526,0.9896896,3.732104
117.7024,159.5867,-0.07480036,0.9896896,3.732104
117.7524,139.1158,-0.0718217,0.9896896,3.732104
117.8023,125.8923,-0.06884526,0.9896896,3.732104
117.8523,115.9747,-0.06884526,0.989525,3.732104
117.9023,114.1946,-0.06884526,0.989525,3.732104
117.9523,115.8476,-0.0718217,0.9898543,3.732104
118.0016,114.9575,-0.0718217,0.9896896,3.732104
118.0517,97.9196,-0.0718217,0.9896896,3.732104
118.103,94.48659,-0.0718217,0.9896896,3.732104
118.1527,92.19792,-0.0718217,0.989525,3.732104
118.2013,84.69615,-0.06884526,0.9898543,3.732104
118.2524,88.25631,-0.0718217,0.989525,3.732104
118.3022,152.975,-0.06884526,0.9896896,3.732104
118.3531,162.0025,-0.06884526,0.9995722,3.732104
118.4023,152.3392,-0.0718217,0.999737,3.732104
118.452,131.9954,-0.06884526,0.999737,3.732104
118.502,120.6792,-0.06884526,0.9995722,3.732104
118.5514,117.3734,-0.0718217,0.999737,3.732104
118.6023,118.0091,-0.06884526,0.999737,3.732104
118.6527,119.9163,-0.06884526,0.9995722,3.732104
118.7013,99.95398,-0.0718217,0.999737,3.732104
118.7512,96.77527,-0.06884526,0.9999016,3.732104
118.8021,92.07076,-0.0718217,0.999737,3.732104
118.8534,87.36626,-0.06884526,0.999737,3.732104
118.9032,87.11198,-0.0718217,0.9995722,3.732104
118.9517,128.8167,-0.0718217,0.9995722,3.738563
119.0012,161.8754,-0.06884526,0.9896896,3.738563
119.052,152.0849,-0.0718217,0.9896896,3.738563
119.1029,138.0986,-0.06884526,0.9896896,3.738563
119.153,123.2222,-0.06884526,0.9896896,3.738563
119.2014,121.315,-0.0718217,0.9896896,3.745023
119.2515,118.2634,-0.06884526,0.9896896,3.738563
119.3018,118.772,-0.06884526,0.9896896,3.745023
119.3527,102.3698,-0.0718217,0.9896896,3.745023
119.4027,98.30104,-0.06884526,0.9896896,3.751482
119.4517,94.2323,-0.06884526,0.989525,3.751482
119.5015,89.90925,-0.06884526,0.9896896,3.751482
119.5515,87.87486,-0.0718217,0.9896896,3.751482
119.6025,123.2222,-0.0718217,0.9898543,3.751482
119.653,161.1125,-0.06884526,0.999737,3.757941
119.7015,156.1537,-0.06884526,0.999737,3.757941
119.7517,137.4628,-0.06884526,0.999737,3.751482
119.8018,123.7308,-0.06884526,0.999737,3.7644
119.8522,115.8476,-0.0718217,0.9995722,3.757941
119.9027,117.7548,-0.06884526,0.999737,3.7644
119.9515,119.5349,-0.0718217,0.999737,3.7644
120.0015,104.0227,-0.06884526,0.999737,3.7644
120.0517,97.79247,-0.0718217,0.999737,3.770859
120.1025,94.2323,-0.0718217,0.9995722,3.770859
120.1533,87.11198,-0.06884526,0.999737,3.777318
120.202,83.29751,-0.06884526,0.999737,3.770859
120.2515,120.8064,-0.0718217,0.9995722,3.770859
120.3014,157.9338,-0.0718217,0.9995722,3.777318
120.3527,153.3564,-0.0718217,0.9995722,3.777318
120.4028,130.3425,-0.0718217,0.999737,3.777318
120.4513,121.4421,-0.0718217,0.999737,3.783778
120.5013,113.3046,-0.06884526,0.999737,3.777318
120.5524,115.8476,-0.0718217,0.9995722,3.783778
120.6023,116.4833,-0.0718217,0.999737,3.783778
120.6528,116.7376,-0.06884526,0.999737,3.783778
120.7013,97.15671,-0.0718217,0.999737,3.790237
120.7523,92.19792,-0.07480036,0.9995722,3.783778
120.8023,85.58618,-0.0718217,0.9995722,3.783778
120.8533,86.09478,-0.06884526,0.9995722,3.790237
120.903,113.1774,-0.0718217,0.999737,3.790237
120.9514,156.7894,-0.0718217,0.999737,3.790237
121.0013,149.1605,-0.06884526,0.9896896,3.790237
121.0517,123.3493,-0.0718217,0.9896896,3.790237
121.1028,111.3974,-0.06884526,0.989525,3.790237
121.1523,111.0159,-0.0718217,0.9896896,3.796696
121.2018,112.5417,-0.0718217,0.9896896,3.796696
121.2514,115.9747,-0.06884526,0.9896896,3.796696
121.3013,98.04675,-0.06884526,0.9896896,3.796696
121.3523,94.35944,-0.07480036,0.9896896,3.796696
121.4034,92.83366,-0.0718217,0.9896896,3.796696
121.4522,85.96764,-0.0718217,0.9896896,3.796696
121.5017,92.32506,-0.0718217,0.989525,3.796696
121.5518,145.2189,-0.06884526,0.9896896,3.796696
121.6026,159.2052,-0.06884526,0.9898543,3.796696
121.6532,147.7619,-0.0718217,0.9896896,3.796696
121.7018,130.9782,-0.06586661,0.9896896,3.803155
121.7518,116.9919,-0.0718217,0.9896896,3.796696
121.8017,115.8476,-0.0718217,0.9896896,3.803155
121.8527,115.9747,-0.0718217,0.9896896,3.803155
121.9027,117.2462,-0.0718217,0.9896896,3.803155
121.9522,100.9712,-0.06884526,0.9896896,3.803155
122.0019,98.6825,-0.06884526,0.989525,3.803155
122.0521,91.68932,-0.06884526,0.9898543,3.803155
122.1025,88.12916,-0.0718217,0.9896896,3.803155
122.1532,90.29069,-0.0718217,0.989525,3.803155
122.2023,113.5589,-0.0718217,0.9896896,3.803155
122.2518,158.188,-0.0718217,0.9896896,3.803155
122.3018,150.6863,-0.07480036,0.989525,3.803155
122.3531,133.0126,-0.06884526,0.9896896,3.803155
122.4025,121.6964,-0.0718217,0.9900191,3.803155
122.452,117.119,-0.07480036,0.9898543,3.803155
122.5023,117.8819,-0.06884526,0.989525,3.803155
122.5521,118.5177,-0.06884526,0.989525,3.803155
122.603,101.7341,-0.06884526,0.9898543,3.803155
122.6526,96.52097,-0.0718217,0.9896896,3.803155
122.702,91.05358,-0.0718217,0.9896896,3.809614
122.7519,87.49342,-0.0718217,0.9896896,3.803155
