t_sec,abp_mmHg,resp_arbunit,spo2_unitless,scon_muS
0,0.5237532,-1.147148,0.9798071,4.093818
0.05058014,0.5237532,-0.887017,0.9798071,4.093818
0.1001952,0.5237532,-0.9070267,0.9798071,4.093818
0.1493826,0.6509008,-0.8469965,0.9796425,4.093818
0.199126,0.5237532,-0.8820138,0.9796425,4.093818
0.2499687,0.6509008,-0.8970214,0.9798071,4.087358
0.3004692,0.5237532,-0.8695074,0.9798071,4.093818
0.3509983,0.6509008,-0.7819632,0.9798071,4.093818
0.3992167,0.5237532,-0.6844145,0.9798071,4.087358
0.4497208,0.5237532,-0.5493466,0.9798071,4.087358
0.4996208,0.3966055,-0.4718068,0.9798071,4.087358
0.5510018,0.5237532,-0.4042732,0.9798071,4.087358
0.6007228,0.3966055,-0.3517464,0.9796425,4.087358
0.6491256,0.5237532,-0.2767086,0.9798071,4.080899
0.7000822,0.5237532,-0.2166784,0.9799718,4.080899
0.7501447,0.6509008,-0.07660822,0.9798071,4.080899
0.8002439,0.6509008,0.03344778,0.9798071,4.080899
0.8507326,0.5237532,0.120992,0.9796425,4.080899
0.900204,0.5237532,0.1960297,0.9796425,4.080899
0.9499888,0.5237532,0.2985815,0.9798071,4.080899
0.9996162,0.3966055,0.4061355,0.9796425,4.07444
1.05108,1.286647,0.4461559,0.9798071,4.080899
1.100646,0.5237532,0.4686668,0.9798071,4.07444
1.150219,0.5237532,0.503685,0.9798071,4.07444
1.199077,0.3966055,0.5912292,0.9798071,4.07444
1.249703,0.3966055,0.721294,0.9798071,4.067981
1.301209,1.159495,0.7413048,0.9798071,4.07444
1.350833,0.6509008,0.7663167,0.9798071,4.07444
1.400137,0.3966055,0.7763221,0.9798071,4.067981
1.449739,0.3966055,0.8088382,0.9798071,4.067981
1.500223,0.5237532,0.8638663,0.9798071,4.07444
1.550342,0.5237532,0.8913803,0.9798071,4.080899
1.600755,0.9051962,0.8738716,0.9798071,4.07444
1.649612,0.3966055,0.8738716,0.9798071,4.067981
1.699113,0.3966055,0.8788738,0.9798071,4.067981
1.750081,0.5237532,0.8788738,0.9798071,4.067981
1.800707,0.3966055,0.8438565,0.9799718,4.061522
1.850951,0.5237532,0.7988338,0.9799718,4.067981
1.899578,0.5237532,0.7863274,0.9799718,4.048604
1.94999,0.5237532,0.7788231,0.9798071,4.035685
1.999949,0.5237532,0.7838263,0.9798071,4.042144
2.051075,0.5237532,0.7788231,0.9798071,4.055062
2.100132,0.5237532,0.7713198,0.9796425,4.055062
2.14976,0.5237532,0.7513092,0.9796425,4.055062
2.199363,0.5237532,0.6487574,0.9798071,4.055062
2.249701,0.3966055,0.556211,0.9798071,4.048604
2.300116,0.5237532,0.4861754,0.9798071,4.055062
2.351091,0.5237532,0.4411528,0.9796425,4.061522
2.399451,0.5237532,0.3861257,0.9798071,4.061522
2.44987,0.5237532,0.3561106,0.9798071,4.055062
2.499454,0.5237532,0.2610621,0.9799718,4.055062
2.550394,0.5237532,0.2160395,0.9798071,4.048604
2.600571,0.5237532,0.1159889,0.9798071,4.055062
2.649869,0.5237532,-0.02908354,0.9798071,4.048604
2.699632,0.5237532,-0.2516966,0.9798071,4.035685
2.749225,0.5237532,-0.2792097,0.9798071,4.022767
2.800963,0.5237532,-0.3792604,0.9798071,4.035685
2.851108,0.5237532,-0.4392906,0.9798071,4.042144
2.899959,0.5237532,-0.5118272,0.9798071,4.042144
2.949731,0.5237532,-0.561853,0.9796425,4.042144
2.999701,0.5237532,-0.5818627,0.9798071,4.042144
3.051106,0.5237532,-0.6043736,0.9798071,4.055062
3.100687,0.5237532,-0.6443941,0.9796425,4.048604
3.149949,0.5237532,-0.6619027,0.9798071,4.048604
3.199822,0.3966055,-0.6744092,0.9796425,4.042144
3.249732,0.6509008,-0.6769103,0.9798071,4.048604
3.30063,0.3966055,-0.7569512,0.9798071,4.042144
3.351196,0.5237532,-0.7569512,0.9796425,4.035685
3.399131,0.3966055,-0.9245353,0.9798071,4.029226
3.449486,0.5237532,-1.124637,0.9798071,4.009848
3.499625,0.5237532,-1.297223,0.9796425,4.022767
3.550231,0.5237532,-1.317234,0.9798071,4.029226
3.600199,0.5237532,-1.262206,0.9798071,4.029226
3.649361,0.5237532,-1.267208,0.9798071,4.029226
3.699693,0.6509008,-1.304727,0.9798071,4.042144
3.750083,0.5237532,-1.294722,0.9798071,4.042144
3.80124,0.5237532,-1.304727,0.9798071,4.035685
3.851206,0.5237532,-1.334742,0.9798071,4.035685
3.900207,0.5237532,-1.402276,0.9799718,4.029226
3.949959,0.5237532,-1.377264,0.9798071,4.029226
4.000315,0.5237532,-1.249699,0.9798071,4.016308
4.050591,0.6509008,-0.9545504,0.9798071,4.009848
4.100357,0.3966055,-0.8820138,0.9798071,4.016308
4.149694,0.9051962,-0.8044749,0.9798071,4.029226
4.199689,0.9051962,-0.8044749,0.9796425,4.029226
4.249225,0.5237532,-0.8169814,0.9798071,4.029226
4.300474,0.9051962,-0.8144803,0.9798071,4.029226
4.351104,0.9051962,-0.7469459,0.9798071,4.035685
4.400074,0.5237532,-0.6719081,0.9796425,4.035685
4.450367,0.7780523,-0.5293359,0.9798071,4.035685
4.499459,1.032348,-0.399271,0.9798071,4.035685
4.550808,1.286647,-0.316729,0.9798071,4.042144
4.600483,1.159495,-0.2091751,0.9798071,4.035685
4.649353,0.7780523,-0.08911467,0.9798071,4.035685
4.699225,1.032348,0.02344243,0.9798071,4.029226
4.749304,0.5237532,0.08847485,0.9799718,4.016308
4.800955,0.7780523,0.1385006,0.9798071,4.016308
4.850572,1.032348,0.2035331,0.9798071,4.035685
4.899605,0.9051962,0.2760697,0.9798071,4.035685
4.949599,0.5237532,0.3260955,0.9796425,4.035685
5.00019,0.7780523,0.366115,0.9799718,4.029226
5.050803,1.032348,0.3636139,0.9798071,4.035685
5.100746,0.5237532,0.3886268,0.9798071,4.042144
5.150299,0.6509008,0.448657,0.9798071,4.029226
5.200067,0.5237532,0.5587121,0.9798071,4.029226
5.249988,0.5237532,0.6712692,0.9798071,4.035685
5.300627,0.5237532,0.7262972,0.9796425,4.035685
5.350377,0.5237532,0.7588134,0.9796425,4.035685
5.399871,0.5237532,0.7688187,0.9799718,4.042144
5.450175,0.5237532,0.7638156,0.9796425,4.035685
5.500225,0.6509008,0.7613145,0.9798071,4.042144
5.55124,0.6509008,0.7563123,0.9799718,4.042144
5.600491,0.5237532,0.7413048,0.9798071,4.042144
5.649841,0.5237532,0.7363016,0.9796425,4.042144
5.699576,0.5237532,0.7087885,0.9798071,4.035685
5.749946,0.5237532,0.6962821,0.9798071,4.042144
5.800689,0.6509008,0.6262465,0.9798071,4.042144
5.85094,0.5237532,0.528697,0.9798071,4.042144
5.900305,0.5237532,0.4811732,0.9796425,4.042144
5.950088,0.5237532,0.4061355,0.9798071,4.042144
6.000503,0.5237532,0.3536086,0.9798071,4.042144
6.050591,0.5237532,0.2910773,0.9796425,4.042144
6.101338,0.6509008,0.1960297,0.9798071,4.042144
6.150047,0.3966055,0.1234931,0.9798071,4.042144
6.199429,0.5237532,0.08097153,0.9796425,4.042144
6.249934,0.5237532,0.05845974,0.9796425,4.042144
6.301336,0.5237532,0.02344243,0.9798071,4.042144
6.350962,0.5237532,-0.04659311,0.9799718,4.048604
6.399443,0.5237532,-0.1491449,0.9798071,4.042144
6.44978,0.6509008,-0.2441924,0.9798071,4.042144
6.499719,0.5237532,-0.3267344,0.9796425,4.042144
6.550586,0.5237532,-0.5193315,0.9798071,4.042144
6.600724,0.5237532,-0.6218832,0.9799718,4.048604
6.650321,0.5237532,-0.7319383,0.9798071,4.042144
6.699697,0.3966055,-0.7519481,0.9798071,4.048604
6.74933,0.5237532,-0.724435,0.9798071,4.042144
6.800293,0.5237532,-0.7069254,0.9798071,4.042144
6.851212,0.5237532,-0.7194318,0.9798071,4.042144
6.899486,0.5237532,-0.7444447,0.9798071,4.042144
6.950203,0.5237532,-0.7819632,0.9798071,4.042144
6.999697,0.5237532,-0.8494976,0.9798071,4.042144
7.05093,0.5237532,-0.9295375,0.9798071,4.042144
7.101537,0.5237532,-1.0521,0.9798071,4.048604
7.150229,0.5237532,-1.134641,0.9798071,4.042144
7.200303,0.5237532,-1.142145,0.9798071,4.042144
7.249424,0.5237532,-1.254702,0.9798071,4.042144
7.30042,0.5237532,-1.214682,0.9798071,4.042144
7.35094,0.5237532,-1.407279,0.9798071,4.042144
7.400152,0.5237532,-1.444797,0.9796425,4.042144
7.449429,0.5237532,-1.434793,0.9898543,4.042144
7.499931,0.5237532,-1.317234,0.9898543,4.042144
7.551176,0.5237532,-0.9870667,0.9898543,4.042144
7.600323,0.5237532,-0.8670062,0.9898543,4.042144
7.650112,0.3966055,-0.7644545,0.9898543,4.042144
7.699713,0.5237532,-0.669407,0.9898543,4.042144
7.749689,0.5237532,-0.5218326,0.9896896,4.042144
7.800841,0.5237532,-0.2566988,0.9896896,4.042144
7.851568,0.5237532,-0.03158556,0.9896896,4.042144
7.899676,0.5237532,0.1009813,0.9898543,4.042144
7.950207,0.5237532,0.1560093,0.9896896,4.042144
8.000446,0.5237532,0.201032,0.9898543,4.042144
8.050475,0.5237532,0.201032,0.9898543,4.042144
8.101331,0.3966055,0.2285459,0.9898543,4.042144
8.14954,0.5237532,0.2160395,0.9798071,4.035685
8.199677,0.5237532,0.2185406,0.9798071,4.042144
8.250173,0.6509008,0.2760697,0.9798071,4.035685
8.301174,0.5237532,0.3686161,0.9798071,4.042144
8.350458,0.5237532,0.4736699,0.9798071,4.035685
8.399682,0.5237532,0.5236948,0.9798071,4.035685
8.450411,0.5237532,0.5687174,0.9798071,4.035685
8.500535,0.5237532,0.6412541,0.9798071,4.035685
8.551605,0.5237532,0.6887779,0.9799718,4.035685
8.600913,0.5237532,0.7388036,0.9796425,4.035685
8.650206,0.5237532,0.7763221,0.9799718,4.035685
8.699923,0.6509008,0.8013349,0.9798071,4.035685
8.749827,0.5237532,0.8388534,0.9798071,4.035685
8.800425,0.5237532,0.8663673,0.9896896,4.035685
8.851207,0.5237532,0.8688685,0.9896896,4.035685
8.899695,0.5237532,0.8588641,0.9896896,4.035685
8.949594,0.5237532,0.8338512,0.9898543,4.029226
8.999947,0.6509008,0.7988338,0.9898543,4.029226
9.050686,0.5237532,0.7813243,0.9896896,4.029226
9.100908,0.6509008,0.7638156,0.9898543,4.035685
9.149914,0.5237532,0.7638156,0.9898543,4.029226
9.200042,0.5237532,0.7413048,0.9896896,4.029226
9.250294,0.5237532,0.7137907,0.9898543,4.029226
9.300576,0.5237532,0.6062368,0.9898543,4.029226
9.351198,0.5237532,0.5061861,0.9900191,4.029226
9.399934,0.5237532,0.4661657,0.9898543,4.029226
9.45067,0.5237532,0.4186419,0.9896896,4.029226
9.499591,0.3966055,0.3711182,0.9898543,4.029226
9.54971,0.5237532,0.2985815,0.9898543,4.029226
9.599926,0.5237532,0.2160395,0.9898543,4.029226
9.650153,0.3966055,0.1635135,0.9898543,4.022767
9.700924,0.5237532,0.09848019,0.9898543,4.022767
9.750019,0.5237532,-0.04409109,0.9898543,4.029226
9.800531,0.3966055,-0.2291848,0.9896896,4.022767
9.85015,0.5237532,-0.261701,0.9896896,4.022767
9.899771,0.6509008,-0.2917162,0.9898543,4.022767
9.951298,0.5237532,-0.2867139,0.9900191,4.022767
9.999915,0.5237532,-0.3292355,0.9896896,4.022767
10.04947,0.5237532,-0.4342884,0.9898543,4.022767
10.10055,0.5237532,-0.5018228,0.9896896,4.016308
10.14994,0.6509008,-0.5568499,0.9898543,4.016308
10.20097,0.5237532,-0.5668552,0.9896896,4.016308
10.24984,0.5237532,-0.5743585,0.9896896,4.016308
10.3002,0.5237532,-0.5768605,0.9898543,4.016308
10.34947,0.6509008,-0.5893661,0.9898543,4.016308
10.40069,0.5237532,-0.5968703,0.9898543,4.016308
10.45168,0.5237532,-0.6093768,0.9898543,4.016308
10.50002,0.6509008,-0.6168801,0.9896896,4.016308
10.5504,0.3966055,-0.7569512,0.9898543,4.016308
10.59953,0.5237532,-0.9195331,0.9898543,4.009848
10.65045,0.5237532,-1.004576,0.9898543,4.009848
10.70077,0.5237532,-1.009578,0.9898543,4.016308
10.74994,0.3966055,-0.9795634,0.9898543,4.009848
10.7997,0.5237532,-0.9820644,0.9898543,4.009848
10.8504,0.3966055,-0.9820644,0.9896896,4.009848
10.90055,0.5237532,-0.997072,0.9898543,4.009848
10.95091,0.5237532,-1.037092,0.9898543,4.009848
10.99952,0.5237532,-1.059603,0.9898543,4.003389
11.04967,0.7780523,-1.089618,0.9898543,4.003389
11.10054,0.7780523,-1.129639,0.9898543,4.003389
11.15052,0.5237532,-1.147148,0.9898543,4.009848
11.20131,0.6509008,-1.174662,0.9898543,4.009848
11.24981,0.5237532,-1.147148,0.9898543,4.003389
11.30027,0.6509008,-1.07211,0.9898543,3.99693
11.35017,0.6509008,-0.9170321,0.9896896,4.003389
11.39989,0.5237532,-0.8920192,0.9898543,4.003389
11.45166,0.5237532,-0.8970214,0.9898543,4.003389
11.50042,0.6509008,-0.8945202,0.9898543,4.003389
11.54959,0.5237532,-0.8119792,0.9896896,4.003389
11.60014,0.5237532,-0.7369405,0.9898543,3.99693
11.65065,0.3966055,-0.6569005,0.9898543,3.99693
11.70145,0.6509008,-0.5843639,0.9898543,3.99693
11.74995,0.5237532,-0.5268348,0.9896896,3.99693
11.79966,0.5237532,-0.4317873,0.9896896,3.990471
11.85052,0.5237532,-0.261701,0.9898543,3.99693
11.89952,0.6509008,-0.1666535,0.9896896,3.99693
11.95106,0.5237532,-0.04409109,0.9898543,3.990471
12.00031,0.5237532,0.01844022,0.9898543,3.990471
12.05054,0.6509008,0.07096619,0.9898543,3.990471
12.10043,0.6509008,0.1334984,0.9898543,3.990471
12.14964,0.5237532,0.1735179,0.9798071,3.990471
12.20169,0.6509008,0.3010826,0.9798071,3.990471
12.25001,0.5237532,0.3235935,0.9799718,3.990471
12.30006,0.5237532,0.341103,0.9798071,3.990471
12.35059,0.6509008,0.3436041,0.9798071,3.990471
12.40054,0.6509008,0.3961301,0.9798071,3.984012
12.45152,0.5237532,0.476171,0.9798071,3.984012
12.50043,0.5237532,0.5887272,0.9799718,3.984012
12.54954,0.5237532,0.6612638,0.9798071,3.984012
12.60013,0.5237532,0.7012843,0.9798071,3.977553
12.64956,0.5237532,0.721294,0.9798071,3.984012
12.7013,0.5237532,0.7338005,0.9798071,3.984012
12.74965,0.5237532,0.7363016,0.9798071,3.977553
12.80043,0.5237532,0.7338005,0.9798071,3.977553
12.84968,0.5237532,0.721294,0.9799718,3.977553
12.89993,0.5237532,0.7237961,0.9799718,3.977553
12.95154,0.5237532,0.6987832,0.9799718,3.984012
13.00026,0.5237532,0.6987832,0.9798071,3.977553
13.04977,0.5237532,0.6587628,0.9798071,3.977553
13.10064,0.5237532,0.5712186,0.9798071,3.977553
13.15018,0.5237532,0.5186926,0.9798071,3.977553
13.20068,0.5237532,0.4411528,0.9798071,3.977553
13.2498,0.5237532,0.3861257,0.9798071,3.971093
13.30068,0.5237532,0.3561106,0.9798071,3.971093
13.35043,0.3966055,0.3185913,0.9798071,3.977553
13.40007,0.5237532,0.2485557,0.9799718,3.971093
13.45142,0.5237532,0.1560093,0.9799718,3.971093
13.49994,0.6509008,0.1009813,0.9798071,3.971093
13.55014,0.3966055,0.04845533,0.9798071,3.971093
13.60071,0.3966055,0.0009315669,0.9798071,3.977553
13.64995,0.5237532,-0.05159533,0.9798071,3.971093
13.70114,0.5237532,-0.1191298,0.9799718,3.971093
13.74974,0.3966055,-0.2366891,0.9798071,3.971093
13.80033,0.5237532,-0.2792097,0.9798071,3.971093
13.85043,0.5237532,-0.3517464,0.9798071,3.971093
13.89964,0.5237532,-0.6093768,0.9799718,3.971093
13.95127,0.5237532,-0.669407,0.9801366,3.971093
14.0007,0.5237532,-0.696921,0.9798071,3.971093
14.05042,1.032348,-0.7069254,0.9798071,3.971093
14.10013,0.5237532,-0.6944199,0.9798071,3.971093
14.1497,1.159495,-0.7119285,0.9799718,3.971093
14.20164,1.032348,-0.7444447,0.9798071,3.971093
14.25054,1.159495,-0.7694576,0.9799718,3.964634
14.30017,0.5237532,-0.806976,0.9798071,3.964634
14.34964,1.286647,-0.8319889,0.9798071,3.964634
14.3998,1.032348,-0.8720094,0.9799718,3.964634
14.4508,1.032348,-0.8970214,0.9898543,3.964634
14.49967,0.3966055,-0.9295375,0.9898543,3.964634
14.55015,1.159495,-0.9345407,0.9896896,3.964634
14.60019,1.032348,-0.9945709,0.9898543,3.958175
14.65016,0.9051962,-0.9945709,0.9898543,3.958175
14.70142,0.3966055,-1.134641,0.9898543,3.958175
14.75075,1.032348,-1.417284,0.9898543,3.964634
14.80003,1.032348,-1.644899,0.9898543,3.958175
14.8504,0.5237532,-1.682417,0.9900191,3.964634
14.90006,0.5237532,-1.594874,0.9898543,3.958175
14.95105,0.5237532,-1.284718,0.9898543,3.958175
15.00054,0.3966055,-1.062104,0.9898543,3.958175
15.05014,0.5237532,-0.9070267,0.9898543,3.958175
15.10081,0.3966055,-0.8269867,0.9898543,3.958175
15.15055,0.5237532,-0.7869663,0.9898543,3.958175
15.2019,0.5237532,-0.7294372,0.9898543,3.958175
15.24993,0.5237532,-0.6543994,0.9898543,3.958175
15.30054,0.3966055,-0.5418423,0.9898543,3.958175
15.3504,0.5237532,-0.4067743,0.9900191,3.958175
15.40069,0.6509008,-0.2441924,0.9898543,3.958175
15.45101,0.5237532,-0.1941675,0.9896896,3.958175
15.49979,0.3966055,-0.05159533,0.9898543,3.958175
15.54992,0.3966055,-0.02408133,0.9898543,3.958175
15.60037,0.3966055,-0.009073775,0.9898543,3.958175
15.6497,0.5237532,0.03344778,0.9900191,3.958175
15.70116,0.3966055,0.09347798,0.9898543,3.958175
15.75038,0.5237532,0.2060342,0.9898543,3.958175
15.80144,0.5237532,0.3310977,0.9898543,3.958175
15.84999,0.3966055,0.4186419,0.9898543,3.958175
15.89969,0.5237532,0.4536592,0.9898543,3.958175
15.95141,0.3966055,0.5487077,0.9898543,3.964634
16.00088,0.5237532,0.6287476,0.9898543,3.964634
16.05162,0.5237532,0.6912789,0.9898543,3.964634
16.09991,0.5237532,0.7162918,0.9898543,3.964634
16.15025,0.5237532,0.7413048,0.9898543,3.964634
16.20152,0.5237532,0.7788231,0.9900191,3.971093
16.24988,0.5237532,0.7888285,0.9898543,3.971093
16.30174,0.3966055,0.7863274,0.9898543,3.971093
16.35078,0.3966055,0.7663167,0.9898543,3.971093
16.40074,0.5237532,0.7338005,0.9900191,3.977553
16.45194,0.5237532,0.7162918,0.9898543,3.977553
16.50088,0.5237532,0.7112896,0.9900191,3.977553
16.55154,0.5237532,0.7112896,0.9900191,3.977553
16.59978,0.3966055,0.6987832,0.9900191,3.977553
16.64987,0.5237532,0.6837756,0.9900191,3.977553
16.70153,0.5237532,0.668768,0.9898543,3.984012
16.75018,0.5237532,0.6312487,0.9898543,3.977553
16.80187,0.5237532,0.4986819,0.9900191,3.984012
16.85025,0.5237532,0.3986312,0.9898543,3.984012
16.90078,0.5237532,0.3611128,0.9900191,3.984012
16.95079,0.5237532,0.3035837,0.9900191,3.984012
17.0005,0.5237532,0.1735179,0.9898543,3.990471
17.05153,0.5237532,0.120992,0.9898543,3.990471
17.10013,0.5237532,0.04595422,0.9898543,3.990471
17.15042,0.5237532,-0.1191298,0.9898543,3.990471
17.20115,0.5237532,-0.3267344,0.9900191,3.990471
17.25064,0.6509008,-0.3767593,0.9898543,3.990471
17.30116,0.6509008,-0.424283,0.9898543,3.99693
17.35078,0.5237532,-0.4668046,0.9898543,3.99693
17.40003,0.5237532,-0.5468454,0.9898543,3.99693
17.45081,0.3966055,-0.6068757,0.9898543,3.99693
17.50001,0.5237532,-0.6168801,0.9898543,3.99693
17.55129,0.5237532,-0.6268854,0.9900191,3.99693
17.60016,0.5237532,-0.6594017,0.9898543,3.99693
17.65014,0.5237532,-0.6919178,0.9898543,4.003389
17.70117,0.5237532,-0.7269361,0.9900191,4.003389
17.75065,0.5237532,-0.7919685,0.9900191,4.003389
17.8009,0.5237532,-0.8194825,0.9898543,4.003389
17.8505,0.5237532,-0.887017,0.9900191,4.003389
17.9,0.5237532,-1.124637,0.9900191,4.003389
17.95149,0.5237532,-1.417284,0.9900191,4.009848
18.00011,0.6509008,-1.56736,0.9898543,4.009848
18.0509,0.5237532,-1.564859,0.9900191,4.003389
18.10064,0.5237532,-1.50733,0.9898543,4.003389
18.1506,0.6509008,-1.524838,0.9900191,4.009848
18.20087,0.5237532,-1.604878,0.9898543,4.003389
18.2503,0.3966055,-1.637395,0.9898543,4.003389
18.30188,0.3966055,-1.66741,0.9898543,4.003389
18.35086,0.5237532,-1.677415,0.9898543,4.009848
18.40088,0.3966055,-1.657405,0.9900191,4.009848
18.45099,0.5237532,-1.582367,0.9896896,4.003389
18.50012,0.3966055,-1.292221,0.9898543,4.009848
18.55153,0.3966055,-1.004576,0.9898543,4.003389
18.60102,0.5237532,-0.7844652,0.9898543,4.003389
18.65043,0.3966055,-0.8019738,0.9898543,4.009848
18.70126,0.5237532,-0.8144803,0.9898543,4.009848
18.75002,0.3966055,-0.8194825,0.9898543,4.009848
18.80139,0.6509008,-0.7694576,0.9900191,4.009848
18.85015,0.5237532,-0.6543994,0.9898543,4.009848
18.90002,0.6509008,-0.5568499,0.9898543,4.003389
18.95166,0.5237532,-0.4367895,0.9898543,4.009848
18.99985,0.3966055,-0.3042226,0.9896896,4.009848
19.05185,0.5237532,-0.2391902,0.9898543,4.003389
19.09986,0.5237532,-0.1141266,0.9898543,4.009848
19.15026,0.5237532,-0.001570461,0.9898543,4.003389
19.20188,0.5237532,0.06596398,0.9898543,4.009848
19.25085,0.5237532,0.1334984,0.9898543,4.003389
19.30109,0.5237532,0.1910266,0.9898543,4.003389
19.35063,83.55181,0.2760697,0.9898543,4.003389
19.39992,83.29751,0.3260955,0.9898543,4.003389
19.45085,81.64457,0.3586117,0.9798071,4.003389
19.50099,87.87486,0.3886268,0.9799718,4.003389
19.55199,96.77527,0.4361506,0.9799718,4.003389
19.60076,126.9095,0.5362012,0.9798071,4.003389
19.64986,104.0227,0.663765,0.9799718,4.003389
19.70191,92.57936,0.7162918,0.9798071,4.003389
19.74998,83.29751,0.7413048,0.9799718,3.99693
19.80152,97.66531,0.7513092,0.9799718,3.99693
19.85035,101.4798,0.7513092,0.9798071,4.003389
19.90011,105.6757,0.7563123,0.9799718,3.99693
19.9514,93.72369,0.7513092,0.9799718,3.99693
20.00104,88.00201,0.7513092,0.9798071,4.003389
20.0511,85.33189,0.7388036,0.9799718,3.99693
20.10048,85.20473,0.7312994,0.9799718,4.003389
20.1501,83.04321,0.6937801,0.9898543,3.99693
20.20176,81.39028,0.6312487,0.9900191,3.99693
20.25076,88.25631,0.5537099,0.9898543,3.99693
20.30098,127.5452,0.4711679,0.9898543,3.99693
20.35088,116.6105,0.4586624,0.9900191,3.99693
20.40014,106.3114,0.4361506,0.9898543,3.99693
20.45198,91.56216,0.3986312,0.9898543,3.990471
20.4999,84.44184,0.3010826,0.9898543,3.99693
20.55163,99.82683,0.1985308,0.9900191,3.990471
20.6009,105.2942,0.1359995,0.9898543,3.990471
20.64997,98.04675,0.09097688,0.9898543,3.990471
20.70159,89.78209,0.05845974,0.9898543,3.990471
20.75077,87.49342,0.008434881,0.9900191,3.990471
20.80172,85.45904,-0.07910933,0.9898543,3.990471
20.85048,84.44184,-0.1941675,0.9900191,3.990471
20.90048,83.29751,-0.3817615,0.9900191,3.984012
20.95103,82.40748,-0.5843639,0.9900191,3.990471
21.00089,90.67213,-0.6018725,0.9898543,3.990471
21.05196,130.5968,-0.6218832,0.9896896,3.984012
21.10061,133.1398,-0.6293865,0.9898543,3.984012
21.15088,114.1946,-0.6594017,0.9898543,3.984012
21.20147,93.2151,-0.7044243,0.9898543,3.990471
21.25026,90.92643,-0.7769609,0.9898543,3.984012
21.30213,106.4386,-0.8244847,0.9898543,3.977553
21.35058,107.9643,-0.8945202,0.9900191,3.984012
21.40109,97.9196,-0.9770622,0.9898543,3.977553
21.45098,92.96081,-1.004576,0.9898543,3.984012
21.50013,89.14634,-1.029588,0.9900191,3.977553
21.55197,86.98483,-1.084616,0.9900191,3.977553
21.60035,85.58618,-1.089618,0.9896896,3.984012
21.65047,85.20473,-1.287219,0.9898543,3.977553
21.70109,85.20473,-1.54985,0.9898543,3.977553
21.75076,85.07759,-1.592372,0.9898543,3.977553
21.8011,124.2394,-1.659906,0.9898543,3.971093
21.85036,136.4456,-1.597375,0.9898543,3.977553
21.90087,114.5761,-1.537345,0.9900191,3.977553
21.95174,106.5657,-1.497324,0.9900191,3.971093
21.99999,95.88522,-1.387268,0.9898543,3.977553
22.05187,97.53816,-1.164656,0.9896896,3.971093
22.10083,107.2015,-0.9895687,0.9898543,3.971093
22.15065,109.4901,-0.8745105,0.9898543,3.971093
22.20184,99.82683,-0.7994727,0.9898543,3.964634
22.2506,94.86804,-0.7369405,0.9896896,3.971093
22.30173,90.03638,-0.6794123,0.9900191,3.964634
22.35022,88.00201,-0.559351,0.9900191,3.964634
22.401,86.47623,-0.4017721,0.9898543,3.964634
22.45109,85.20473,-0.3292355,0.9900191,3.964634
22.50009,85.58618,-0.2191795,0.9898543,3.964634
22.55161,84.3147,-0.2166784,0.9900191,3.964634
22.60075,81.51743,-0.1991697,0.9898543,3.958175
22.65013,86.22193,-0.1566482,0.9896896,3.958175
22.70188,129.1982,-0.04158998,0.9898543,3.958175
22.75115,120.8064,0.06346288,0.9900191,3.964634
22.80196,105.93,0.1309964,0.9898543,3.958175
22.85062,93.72369,0.1810222,0.9896896,3.958175
22.9004,92.96081,0.2435535,0.9900191,3.958175
22.95108,107.4557,0.3235935,0.9900191,3.958175
23.00075,109.4901,0.4236441,0.9898543,3.958175
23.05158,96.77527,0.4911786,0.9898543,3.951716
23.10064,95.75809,0.611239,0.9900191,3.958175
23.15077,90.67213,0.7137907,0.9898543,3.958175
23.20147,89.0192,0.7538112,0.9898543,3.958175
23.25047,88.12916,0.7713198,0.9898543,3.958175
23.30109,87.11198,0.7738209,0.9896896,3.951716
23.35086,86.98483,0.7638156,0.9898543,3.951716
23.40084,85.84048,0.7312994,0.9900191,3.951716
23.4516,84.18755,0.6862767,0.9898543,3.951716
23.50055,93.34225,0.6437552,0.9900191,3.951716
23.5521,131.3597,0.5812238,0.9898543,3.951716
23.60008,118.3905,0.5462056,0.9898543,3.951716
23.65024,103.0055,0.4461559,0.9898543,3.945257
23.70212,90.29069,0.3636139,0.9898543,3.945257
23.75021,90.67213,0.2560599,0.9898543,3.945257
23.80161,106.82,0.1710168,0.9898543,3.938797
23.85008,107.3286,0.1109866,0.9898543,3.945257
23.90096,107.9643,0.05595864,0.9898543,3.945257
23.95159,92.19792,-0.01657801,0.9898543,3.938797
24.00007,89.5278,-0.1841622,0.9898543,3.945257
24.05145,86.60338,-0.2441924,0.9898543,3.945257
24.10014,86.73053,-0.3242324,0.9898543,3.938797
24.15061,84.69615,-0.399271,0.9898543,3.938797
24.20159,85.45904,-0.5693563,0.9898543,3.945257
24.25045,84.0604,-0.6669059,0.9898543,3.938797
24.30183,83.29751,-0.8469965,0.9900191,3.938797
24.35024,86.73053,-0.8745105,0.9898543,3.938797
24.4012,132.3769,-0.6619027,0.9900191,3.945257
24.45199,114.3218,-0.6443941,0.9898543,3.938797
24.50024,105.8028,-0.6794123,0.9898543,3.938797
24.55199,93.08795,-0.6794123,0.9898543,3.932338
24.60077,95.37663,-0.724435,0.9900191,3.938797
24.65112,104.1499,-0.7844652,0.9898543,3.932338
24.70207,107.3286,-0.8219836,0.9898543,3.932338
24.75127,97.15671,-0.8544998,0.9900191,3.932338
24.80112,89.2735,-0.8519987,0.9898543,3.932338
24.85119,87.23911,-0.8595029,0.9896896,3.932338
24.90123,85.71333,-0.8645052,0.9898543,3.932338
24.95149,83.17036,-0.9370418,0.9898543,3.932338
25.00108,83.42466,-0.997072,0.9900191,3.932338
25.05177,83.67896,-1.034591,0.9898543,3.925879
25.10012,83.42466,-1.184667,0.9900191,3.925879
25.15024,80.62739,-1.179664,0.9900191,3.925879
25.20207,107.8372,-1.139644,0.9898543,3.932338
25.25058,136.3185,-0.8845149,0.9898543,3.925879
25.30187,118.8991,-0.6819134,0.9900191,3.925879
25.35022,104.0227,-0.5968703,0.9898543,3.932338
25.4002,94.48659,-0.4567992,0.9898543,3.925879
25.45123,91.43503,-0.2842128,0.9898543,3.925879
25.50032,103.387,-0.1341373,0.9898543,3.925879
25.55158,107.3286,0.003432672,0.9898543,3.91942
25.60059,96.77527,0.02344243,0.9898543,3.925879
25.65114,92.07076,0.03094667,0.9898543,3.925879
25.70233,86.09478,0.02094133,0.9898543,3.925879
25.75097,85.33189,0.01593912,0.9898543,3.91942
25.80157,84.569,-0.02408133,0.9798071,3.91942
25.85088,84.569,-0.03158556,0.9799718,3.91942
25.90036,84.3147,-0.2466935,0.9798071,3.925879
25.95138,81.13599,-0.4943186,0.9799718,3.91942
26.00135,82.15317,-0.6093768,0.9799718,3.91942
26.0522,120.9335,-0.6318876,0.9798071,3.91942
26.10023,133.0126,-0.6293865,0.9798071,3.91942
26.15088,105.2942,-0.6468952,0.9801366,3.925879
26.20234,92.07076,-0.6594017,0.9799718,3.91942
26.25033,85.45904,-0.6794123,0.9799718,3.91942
26.30158,96.13953,-0.724435,0.9799718,3.925879
26.35083,102.1155,-0.7494469,0.9799718,3.91942
26.40025,105.2942,-0.7569512,0.9799718,3.925879
26.45209,92.45221,-0.7569512,0.9798071,3.91942
26.50134,85.96764,-0.7644545,0.9799718,3.925879
26.55232,84.0604,-0.7619534,0.9799718,3.91942
26.60119,83.29751,-0.779462,0.9799718,3.925879
26.65024,82.53461,-0.7619534,0.9799718,3.925879
26.70232,81.26313,-0.8144803,0.9798071,3.91942
26.75027,80.11879,-1.01208,0.9798071,3.925879
26.80186,80.62739,-1.327238,0.9798071,3.925879
26.85057,106.3114,-1.467309,0.9798071,3.925879
26.90062,133.9027,-1.474813,0.9798071,3.925879
26.95208,116.8647,-1.372261,0.9798071,3.925879
27.00096,103.0055,-1.219684,0.9799718,3.91942
27.05233,89.5278,-1.147148,0.9799718,3.925879
27.10044,86.09478,-1.067108,0.9799718,3.925879
27.15034,101.4798,-1.024586,0.9798071,3.925879
27.20188,104.6585,-0.9870667,0.9801366,3.925879
27.25073,103.5141,-0.9720591,0.9798071,3.932338
27.30135,89.14634,-0.9595536,0.9799718,3.932338
27.35044,84.82329,-0.9370418,0.9799718,3.932338
27.40133,83.29751,-0.942044,0.9798071,3.932338
27.45131,82.78893,-0.8745105,0.9799718,3.932338
27.50032,82.28033,-0.8920192,0.9798071,3.932338
27.55152,80.37309,-0.91453,0.9799718,3.932338
27.60134,85.96764,-0.9895687,0.9799718,3.932338
27.6508,115.7204,-0.9820644,0.9799718,3.938797
27.7021,133.0126,-0.9345407,0.9798071,3.938797
27.75144,110.6345,-0.8795127,0.9801366,3.932338
27.80158,100.3354,-0.8219836,0.9798071,3.938797
27.85095,85.96764,-0.7719587,0.9798071,3.938797
27.90108,95.75809,-0.7544501,0.9798071,3.938797
27.95194,104.9128,-0.7369405,0.9799718,3.938797
28.00032,106.0571,-0.7294372,0.9798071,3.945257
28.05183,91.43503,-0.724435,0.9798071,3.945257
28.10033,89.65494,-0.7344394,0.9798071,3.945257
28.15093,86.22193,-0.7294372,0.9799718,3.945257
28.20145,83.55181,-0.7394425,0.9798071,3.945257
28.25084,82.02603,-0.7419436,0.9799718,3.945257
28.30193,83.42466,-0.7569512,0.9798071,3.951716
28.35041,119.9163,-0.7444447,0.9798071,3.945257
28.40122,132.2497,-0.6669059,0.9799718,3.951716
28.45172,112.0331,-0.4868143,0.9799718,3.951716
28.50059,98.6825,-0.3767593,0.9798071,3.951716
28.55144,82.78893,-0.2692053,0.9799718,3.951716
28.60137,85.58618,-0.1316353,0.9798071,3.951716
28.65146,99.69969,-0.04409109,0.9798071,3.951716
28.70135,103.387,-0.001570461,0.9798071,3.951716
28.75131,91.56216,0.04095109,0.9801366,3.951716
28.80212,86.60338,0.07847043,0.9798071,3.951716
28.85032,83.29751,0.1410017,0.9798071,3.958175
28.90137,80.37309,0.1710168,0.9798071,3.958175
28.95222,78.08442,0.1760191,0.9798071,3.958175
29.00058,90.54498,0.1935286,0.9799718,3.958175
29.05206,110.5073,0.2435535,0.9798071,3.951716
29.10109,125.7652,0.3360999,0.9798071,3.958175
29.15109,99.95398,0.4461559,0.9799718,3.958175
29.20146,82.15317,0.5937303,0.9799718,3.958175
29.25056,79.22876,0.6787725,0.9798071,3.958175
29.30131,96.90242,0.721294,0.9798071,3.958175
29.35131,101.0983,0.7513092,0.9799718,3.958175
29.40107,101.6069,0.7638156,0.9799718,3.958175
29.45156,88.12916,0.7563123,0.9799718,3.958175
29.50116,85.84048,0.7613145,0.9799718,3.964634
29.5516,81.26313,0.748808,0.9798071,3.971093
29.60069,79.61021,0.721294,0.9799718,3.971093
29.65056,87.87486,0.6812745,0.9798071,3.971093
29.70248,121.315,0.5862261,0.9798071,3.964634
29.75046,132.7583,0.5161905,0.9801366,3.964634
29.80184,112.4145,0.448657,0.9801366,3.964634
29.85071,96.52097,0.3536086,0.9798071,3.951716
29.90055,80.62739,0.2860751,0.9798071,3.938797
29.95173,90.54498,0.2085362,0.9799718,3.945257
30.00134,100.0811,0.1535082,0.9799718,3.958175
30.05181,101.9884,0.09347798,0.9799718,3.964634
30.10105,88.89205,0.06596398,0.9798071,3.971093
30.15042,84.44184,-0.05159533,0.9799718,4.003389
30.20231,81.89888,-0.2191795,0.9801366,4.035685
30.25044,79.73734,-0.4292862,0.9799718,3.971093
30.30133,78.97446,-0.5543488,0.9798071,3.958175
30.35057,88.25631,-0.5843639,0.9799718,3.880665
30.4008,133.3941,-0.6068757,0.9798071,3.906502
30.45241,114.1946,-0.641893,0.9799718,3.945257
30.50066,101.4798,-0.6393918,0.9798071,3.951716
30.55256,85.84048,-0.6393918,0.9798071,3.951716
30.60079,88.7649,-0.7044243,0.9799718,3.951716
30.65044,102.497,-0.7944696,0.9798071,3.951716
30.70145,104.6585,-0.8294879,0.9798071,3.951716
30.75122,96.39381,-0.8344901,0.9799718,3.951716
30.80206,89.2735,-0.8945202,0.9798071,3.958175
30.85069,85.71333,-0.8945202,0.9799718,3.971093
30.90039,83.42466,-0.8920192,0.9798071,3.964634
30.95156,81.13599,-0.887017,0.9799718,3.958175
31.00079,90.41783,-0.889518,0.9798071,3.951716
31.05255,135.4285,-0.8920192,0.9799718,3.951716
31.10041,138.2257,-0.8144803,0.9799718,3.938797
31.15161,109.1087,-0.6944199,0.9799718,3.932338
31.20233,95.75809,-0.6268854,0.9798071,3.945257
31.25136,87.36626,-0.5418423,0.9799718,3.945257
31.3022,98.55534,-0.3942679,0.9798071,3.951716
31.35115,102.497,-0.2692053,0.9799718,3.958175
31.40141,106.0571,-0.1066233,0.9799718,3.971093
31.45155,91.68932,0.04345219,0.9799718,3.990471
31.50068,88.89205,0.05845974,0.9799718,3.977553
31.55163,84.82329,0.1410017,0.9801366,3.932338
31.60148,84.0604,0.1860244,0.9799718,3.867747
31.65082,80.62739,0.2060342,0.9801366,3.925879
31.70232,83.67896,0.2110373,0.9798071,3.938797
31.75066,100.4626,0.2860751,0.9799718,3.945257
31.80141,134.7927,0.4736699,0.9799718,3.945257
31.85066,108.3458,0.6312487,0.9798071,3.945257
31.90107,96.01237,0.668768,0.9798071,3.945257
31.95257,85.58618,0.6937801,0.9799718,3.938797
32.00144,93.72369,0.6962821,0.9799718,3.938797
32.05157,104.5313,0.7012843,0.9798071,3.925879
32.10117,106.4386,0.6962821,0.9798071,3.912961
32.15144,91.43503,0.6812745,0.9799718,3.932338
32.20254,87.74771,0.6437552,0.9799718,3.932338
32.25057,84.0604,0.6487574,0.9798071,3.945257
32.30156,83.04321,0.5487077,0.9798071,3.951716
32.35128,80.62739,0.3235935,0.9799718,3.958175
32.40116,89.78209,0.1935286,0.9799718,3.971093
32.45182,123.7308,0.1359995,0.9799718,3.958175
32.50148,130.2153,0.1259942,0.9799718,3.938797
32.55157,105.6757,0.09597909,0.9799718,3.912961
32.60079,92.57936,0.05345754,0.9799718,3.828992
32.65079,83.80611,-0.02658243,0.9798071,3.91942
32.70156,98.80965,-0.1866633,0.9798071,3.91942
32.75094,102.8784,-0.2266837,0.9799718,3.925879
32.80244,106.3114,-0.3017215,0.9799718,3.932338
32.85154,91.30788,-0.4067743,0.9799718,3.925879
32.90109,86.98483,-0.4918174,0.9798071,3.925879
32.95159,84.18755,-0.5668552,0.9799718,3.925879
33.00132,83.67896,-0.5568499,0.9799718,3.925879
33.05254,82.02603,-0.6293865,0.9798071,3.91942
33.10054,82.28033,-0.7944696,0.9798071,3.906502
33.15134,92.7065,-0.91453,0.9799718,3.906502
33.20155,135.3013,-0.9870667,0.9798071,3.91942
33.25079,124.1122,-0.969558,0.9798071,3.932338
33.30197,109.363,-1.007077,0.9798071,3.945257
33.35144,95.24948,-1.097123,0.9799718,3.971093
33.40057,88.25631,-1.219684,0.9799718,3.932338
33.45217,102.8784,-1.312231,0.9798071,3.893583
33.50115,107.4557,-1.434793,0.9798071,3.822533
33.55205,106.6929,-1.48982,0.9798071,3.906502
33.60159,92.7065,-1.392272,0.9798071,3.906502
33.65116,87.74771,-0.9945709,0.9798071,3.912961
33.70243,84.95044,-0.9020245,0.9798071,3.912961
33.75093,83.42466,-0.8419943,0.9799718,3.91942
33.80209,82.15317,-0.8519987,0.9798071,3.912961
33.85118,81.51743,-0.8094772,0.9799718,3.912961
33.90102,92.96081,-0.7594523,0.9799718,3.912961
33.95254,135.8099,-0.6719081,0.9798071,3.906502
34.00121,128.5624,-0.4392906,0.9799718,3.906502
34.05206,105.93,-0.2742075,0.9798071,3.912961
34.10115,96.01237,-0.151646,0.9799718,3.977553
34.15077,88.00201,-0.03158556,0.9798071,3.945257
34.20182,104.0227,0.05845974,0.9799718,3.912961
34.25083,106.6929,0.1660146,0.9798071,3.900043
34.30181,104.4042,0.258561,0.9798071,3.828992
34.35142,90.29069,0.313589,0.9801366,3.861288
34.40077,85.58618,0.3886268,0.9798071,3.906502
34.45153,83.42466,0.5512088,0.9798071,3.906502
34.50169,82.78893,0.6812745,0.9798071,3.91942
34.552,81.89888,0.6987832,0.9798071,3.91942
34.60054,81.13599,0.6912789,0.9798071,3.91942
34.65078,86.73053,0.7137907,0.9798071,3.91942
34.70244,125.1294,0.7112896,0.9798071,3.91942
34.75076,121.0607,0.7037854,0.9799718,3.91942
34.80203,99.06393,0.7388036,0.9798071,3.91942
34.85077,82.78893,0.8113394,0.9799718,3.906502
34.90145,83.42466,0.9263976,0.9798071,3.912961
34.95202,103.0055,1.011441,0.9798071,3.925879
35.00063,104.0227,1.051461,0.9799718,3.945257
35.05189,102.8784,1.058964,0.9798071,3.958175
35.10096,97.53816,1.066469,0.9798071,3.99693
35.15126,86.60338,1.061466,0.9799718,3.971093
35.20228,82.91606,1.056463,0.9799718,3.945257
35.2512,81.64457,1.026448,0.9798071,3.900043
35.3018,79.61021,0.9689191,0.9798071,3.887124
35.35089,85.71333,0.8788738,0.9799718,3.958175
35.40169,119.5349,0.7863274,0.9798071,3.951716
35.45256,115.7204,0.746307,0.9798071,3.971093
35.50152,107.9643,0.7287983,0.9798071,3.971093
35.55264,88.25631,0.6512594,0.9798071,3.977553
35.60172,80.62739,0.5437045,0.9799718,3.977553
35.65126,96.13953,0.4511581,0.9798071,3.984012
35.70176,103.2598,0.3461052,0.9798071,3.984012
35.75155,103.387,0.2810728,0.9798071,3.977553
35.80232,87.87486,0.2235437,0.9798071,3.984012
35.85113,85.33189,0.1510071,0.9798071,4.009848
35.90113,83.42466,0.1009813,0.9799718,4.035685
35.95214,81.51743,0.02594354,0.9799718,4.055062
36.0008,80.62739,-0.2116762,0.9799718,4.035685
36.05218,84.3147,-0.3942679,0.9798071,4.016308
36.10155,91.18073,-0.5218326,0.9798071,3.990471
36.15167,133.7755,-0.5418423,0.9798071,3.91942
36.2028,115.4661,-0.5518476,0.9798071,4.022767
36.25128,101.8612,-0.5768605,0.9798071,4.022767
36.30228,88.63776,-0.5818627,0.9798071,4.029226
36.3518,92.96081,-0.6118779,0.9798071,4.035685
36.40179,106.5657,-0.6769103,0.9798071,4.042144
36.45226,106.4386,-0.7544501,0.9798071,4.048604
36.50088,101.4798,-0.7819632,0.9799718,4.048604
36.55204,87.49342,-0.7894674,0.9798071,4.048604
36.60101,84.69615,-0.8945202,0.9798071,4.048604
36.65099,83.55181,-0.8820138,0.9798071,4.042144
36.70182,82.66177,-1.087117,0.9798071,4.055062
36.75119,80.88168,-1.412281,0.9798071,4.07444
36.80194,86.34908,-1.504828,0.9798071,4.087358
36.85153,139.3701,-1.379765,0.9798071,4.07444
36.90077,135.5556,-1.282215,0.9798071,4.093818
36.95232,108.0915,-1.327238,0.9798071,4.119654
37.00126,97.02956,-1.417284,0.9796425,4.093818
37.05188,90.79928,-1.512332,0.9798071,4.100276
37.10179,94.2323,-1.494823,0.9799718,4.07444
37.15137,105.93,-1.432292,0.9798071,3.99693
37.20214,100.2083,-1.179664,0.9799718,4.061522
37.25095,91.56216,-0.9620547,0.9799718,4.080899
37.3028,86.98483,-0.7569512,0.9798071,4.087358
37.35157,84.3147,-0.696921,0.9799718,4.093818
37.40176,80.88168,-0.5918681,0.9798071,4.093818
37.45277,80.75454,-0.5818627,0.9796425,4.093818
37.50164,80.75454,-0.5193315,0.9798071,4.100276
37.55234,89.65494,-0.4317873,0.9799718,4.093818
37.60078,124.3665,-0.3517464,0.9798071,4.093818
37.65146,128.0538,-0.1291342,0.9799718,4.093818
37.70277,107.8372,0.03094667,0.9798071,4.087358
37.75117,97.15671,0.09097688,0.9799718,4.106736
37.80254,87.11198,0.148506,0.9796425,4.119654
37.85153,100.3354,0.2185406,0.9799718,4.158409
37.90116,104.5313,0.3511075,0.9798071,4.126113
37.95176,105.5485,0.503685,0.9799718,4.106736
38.00189,89.5278,0.6362519,0.9798071,4.07444
38.05201,83.93326,0.7237961,0.9798071,3.99693
38.10113,83.80611,0.7688187,0.9798071,4.093818
38.15115,82.02603,0.7438058,0.9798071,4.100276
38.20279,80.50024,0.7438058,0.9798071,4.106736
38.25112,79.48306,0.7338005,0.9799718,4.113195
38.30262,87.36626,0.7338005,0.9798071,4.106736
38.35154,116.1019,0.7688187,0.9798071,4.106736
38.40113,120.5521,0.8713705,0.9798071,4.106736
38.452,97.79247,0.9263976,0.9798071,4.100276
38.50178,83.67896,0.9614158,0.9798071,4.093818
38.55236,78.97446,0.993932,0.9798071,4.080899
38.60104,98.6825,0.9989342,0.9798071,4.100276
38.65179,101.9884,1.001435,0.9798071,4.119654
38.70263,102.6241,0.9989342,0.9799718,4.145491
38.75175,88.00201,0.9814256,0.9798071,4.15195
38.80225,82.78893,0.9789245,0.9898543,4.113195
38.8508,82.53461,0.9439062,0.9898543,4.106736
38.90088,80.50024,0.9138911,0.9898543,4.087358
38.95254,80.50024,0.8113394,0.9896896,3.984012
39.0016,77.83012,0.7087885,0.9898543,4.093818
39.05214,84.0604,0.6212443,0.9898543,4.093818
39.10138,113.8132,0.5637152,0.9896896,4.100276
39.15193,114.9575,0.5211937,0.9896896,4.100276
39.20203,100.9712,0.4336495,0.9898543,4.100276
39.2508,85.96764,0.3511075,0.9898543,4.100276
39.30212,80.88168,0.2860751,0.9896896,4.100276
39.35175,99.95398,0.2285459,0.9898543,4.093818
39.40112,102.8784,0.1460039,0.9896896,4.087358
39.45275,103.1327,0.1059844,0.9896896,4.07444
39.5014,87.74771,0.06346288,0.9896896,4.080899
39.5529,80.62739,-0.01157488,0.9898543,4.100276
39.60137,79.48306,-0.2216815,0.9898543,4.113195
39.65101,79.10161,-0.2591999,0.9896896,4.15195
39.70277,78.46587,-0.4693057,0.9898543,4.126113
39.75099,77.83012,-0.5918681,0.9898543,4.093818
39.80254,93.08795,-0.6018725,0.9898543,4.07444
39.85086,136.6999,-0.6468952,0.9898543,4.003389
39.90141,129.3253,-0.6669059,0.9898543,4.067981
39.95198,102.8784,-0.7319383,0.9896896,4.080899
40.001,87.23911,-0.7144296,0.9898543,4.087358
40.0519,85.58618,-0.7469459,0.9896896,4.087358
40.10086,94.48659,-0.8469965,0.9898543,4.087358
40.15118,103.387,-0.9920698,0.9898543,4.087358
40.202,96.90242,-1.024586,0.9898543,4.087358
40.2515,88.00201,-1.042095,0.9898543,4.080899
40.30277,83.42466,-1.134641,0.9896896,4.07444
40.35199,81.89888,-1.294722,0.9898543,4.07444
40.40186,79.99165,-1.272211,0.9898543,4.087358
40.45224,79.3559,-1.419785,0.9896896,4.119654
40.50119,79.10161,-1.46981,0.9896896,4.126113
40.55278,81.26313,-1.494823,0.9898543,4.100276
40.60124,134.9198,-1.477315,0.9898543,4.067981
40.65173,125.3837,-1.407279,0.9898543,3.990471
40.70274,104.7856,-1.307228,0.9896896,4.048604
40.75138,93.46941,-1.184667,0.9898543,4.067981
40.80251,88.00201,-1.009578,0.9898543,4.07444
40.85125,102.2427,-0.8369911,0.9896896,4.080899
40.90173,105.6757,-0.7694576,0.9896896,4.07444
40.95239,106.5657,-0.7069254,0.9896896,4.080899
41.00115,91.81647,-0.6093768,0.9896896,4.07444
41.05302,87.74771,-0.4142786,0.9898543,4.080899
41.10086,84.569,-0.3092248,0.9896896,4.07444
41.15087,82.15317,-0.1841622,0.9799718,4.067981
41.20272,81.39028,0.05595864,0.9798071,4.061522
41.25106,81.13599,0.07847043,0.9796425,4.07444
41.30213,80.11879,0.1685157,0.9798071,4.100276
41.35105,83.17036,0.2135384,0.9798071,4.132572
41.40175,124.8751,0.2985815,0.9798071,4.093818
41.4509,122.3321,0.4286472,0.9799718,4.07444
41.50249,100.4626,0.4036344,0.9798071,4.061522
41.55149,82.53461,0.3110879,0.9798071,4.022767
41.60186,81.77173,0.3886268,0.9798071,4.016308
41.65162,96.26666,0.5762216,0.9796425,4.042144
41.70139,101.7341,0.8563629,0.9798071,4.055062
41.75286,101.8612,1.194032,0.9798071,4.067981
41.80136,86.85767,1.359116,0.9798071,4.067981
41.85184,85.71333,1.421648,0.9798071,4.067981
41.90128,85.33189,1.429151,0.9798071,4.067981
41.95109,84.82329,1.424149,0.9798071,4.067981
42.00248,82.28033,1.401637,0.9799718,4.080899
42.051,78.59301,1.36662,0.9798071,4.080899
42.10154,78.33871,1.354113,0.9799718,4.061522
42.15167,96.52097,1.351612,0.9898543,4.067981
42.20092,130.8511,1.344109,0.9898543,4.055062
42.25198,95.75809,1.314094,0.9898543,4.055062
42.30161,77.57583,1.28658,0.9896896,4.029226
42.35147,80.24594,1.241557,0.9896896,3.958175
42.40102,99.57254,1.204038,0.9898543,4.042144
42.45173,100.7169,1.181527,0.9896896,4.042144
42.50227,88.89205,1.14901,0.9896896,4.048604
42.55147,86.73053,1.078975,0.9898543,4.055062
42.60149,84.18755,0.9589137,0.9896896,4.048604
42.65151,81.26313,0.8638663,0.9898543,4.048604
42.70126,80.37309,0.8013349,0.9896896,4.048604
42.75202,78.21156,0.6562616,0.9896896,4.048604
42.80175,81.39028,0.5612141,0.9898543,4.042144
42.85198,126.7823,0.4961808,0.9896896,4.029226
42.90184,134.9198,0.4586624,0.9898543,4.042144
42.95116,105.5485,0.421143,0.9898543,4.055062
43.00221,91.05358,0.3536086,0.9898543,4.087358
43.05124,80.50024,0.2910773,0.9898543,4.080899
43.1018,90.79928,0.1885255,0.9896896,4.055062
43.15148,98.9368,0.1735179,0.9898543,4.042144
43.20138,104.0227,0.1234931,0.9896896,4.009848
43.25234,89.65494,0.05595864,0.9898543,3.951716
43.30198,83.80611,-0.03158556,0.9896896,4.029226
43.35134,83.17036,-0.1191298,0.9898543,4.029226
43.4015,81.64457,-0.151646,0.9898543,4.035685
43.45098,80.11879,-0.3742582,0.9896896,4.035685
43.50276,80.24594,-0.6043736,0.9896896,4.042144
43.5516,96.64812,-0.6493963,0.9898543,4.035685
43.602,135.937,-0.6543994,0.9898543,4.035685
43.65116,111.2702,-0.6443941,0.9896896,4.029226
43.70109,102.6241,-0.6619027,0.9898543,4.022767
43.75259,90.29069,-0.6844145,0.9896896,4.016308
43.80188,92.96081,-0.7069254,0.9896896,4.022767
43.85188,105.4214,-0.7769609,0.9896896,4.048604
43.90188,108.7272,-0.8695074,0.9896896,4.061522
43.95098,104.6585,-0.9020245,0.9900191,4.080899
44.00248,91.30788,-0.9545504,0.9898543,4.042144
44.05147,85.45904,-1.047097,0.9898543,4.029226
44.1015,84.69615,-1.064606,0.9896896,3.99693
44.15134,84.3147,-1.282215,0.9898543,3.91942
44.2015,83.17036,-1.517334,0.9898543,4.016308
44.25226,88.12916,-1.534843,0.9898543,4.016308
44.30103,120.1706,-1.509831,0.9898543,4.022767
44.35111,135.6828,-1.519835,0.9900191,4.022767
44.40197,116.8647,-1.539846,0.9898543,4.022767
44.45174,105.1671,-1.607379,0.9898543,4.016308
44.50213,92.32506,-1.579866,0.9898543,4.016308
44.55213,98.1739,-1.58737,0.9896896,4.016308
44.60175,105.2942,-1.537345,0.9896896,4.009848
44.65121,108.8544,-1.472311,0.9896896,4.003389
44.70196,95.24948,-1.372261,0.9896896,4.009848
44.75196,89.14634,-1.134641,0.9898543,4.029226
44.80099,86.47623,-0.9295375,0.9898543,4.061522
44.85121,85.20473,-0.862004,0.9898543,4.042144
44.90199,84.3147,-0.7269361,0.9898543,4.029226
44.9518,82.02603,-0.7219329,0.9898543,4.016308
45.00215,81.51743,-0.7019232,0.9898543,3.99693
45.05111,83.42466,-0.614379,0.9898543,3.906502
45.10145,100.2083,-0.451797,0.9896896,4.003389
45.15171,125.638,-0.3217313,0.9896896,4.009848
45.20098,112.2874,-0.1091244,0.9898543,4.016308
45.25302,95.75809,0.01093599,0.9898543,4.022767
45.30176,88.89205,0.05595864,0.9896896,4.022767
45.35211,103.6413,0.1284953,0.9898543,4.022767
45.40221,106.5657,0.2285459,0.9896896,4.029226
45.4521,108.4729,0.341103,0.9900191,4.022767
45.50212,91.30788,0.4436548,0.9896896,4.022767
45.55175,87.23911,0.5211937,0.9896896,4.009848
45.60135,86.34908,0.6562616,0.9898543,4.035685
45.65171,85.20473,0.7012843,0.9898543,4.055062
45.70133,84.44184,0.7388036,0.9898543,4.087358
45.75295,82.53461,0.7563123,0.9898543,4.055062
45.80224,82.02603,0.7563123,0.9898543,4.048604
45.85171,86.09478,0.7713198,0.9898543,4.035685
45.90208,125.7652,0.7913296,0.9898543,4.029226
45.95159,121.5692,0.803836,0.9898543,3.958175
46.00245,107.8372,0.8063371,0.9898543,4.029226
46.05125,89.0192,0.803836,0.9900191,4.042144
46.10171,84.18755,0.8088382,0.9898543,4.055062
46.15112,100.0811,0.7913296,0.9898543,4.061522
46.20174,106.82,0.7788231,0.9898543,4.061522
46.25314,106.0571,0.7738209,0.9896896,4.061522
46.30209,89.90925,0.7663167,0.9898543,4.061522
46.35146,87.23911,0.7613145,0.9896896,4.061522
46.40195,83.67896,0.7363016,0.9898543,4.061522
46.45145,83.29751,0.7287983,0.999737,4.080899
46.50283,83.29751,0.6912789,0.999737,4.106736
46.5511,82.78893,0.5512088,0.9999016,4.093818
46.60172,82.91606,0.3786215,0.9999016,4.080899
46.65199,94.74089,0.2685664,0.999737,4.067981
46.70138,130.5968,0.2235437,0.999737,4.009848
46.75251,105.4214,0.1935286,0.9999016,4.029226
46.80115,96.77527,0.1359995,0.999737,4.07444
46.85152,84.95044,0.08847485,0.999737,4.080899
46.90108,91.94361,0.02094133,0.999737,4.080899
46.95224,102.7513,-0.1166277,0.999737,4.087358
47.00308,105.2942,-0.3267344,0.9999016,4.093818
47.05132,90.79928,-0.3917668,0.9999016,4.087358
47.10183,90.67213,-0.4142786,0.9999016,4.087358
47.15171,84.3147,-0.5018228,0.9898543,4.087358
47.20191,84.0604,-0.5468454,0.9898543,4.087358
47.25259,82.15317,-0.5568499,0.9898543,4.080899
47.30113,81.00883,-0.559351,0.9896896,4.100276
47.35132,80.50024,-0.6869156,0.9896896,4.126113
47.4017,81.00883,-0.8645052,0.9896896,4.132572
47.4512,103.2598,-1.019584,0.9898543,4.106736
47.50303,137.7171,-1.047097,0.9898543,4.100276
47.55149,110.5073,-1.039594,0.9896896,4.080899
47.60195,101.9884,-1.232191,0.9896896,4.003389
47.65196,90.79928,-1.36976,0.9898543,4.067981
47.70125,92.19792,-1.382266,0.9898543,4.093818
47.75295,104.7856,-1.342246,0.9898543,4.093818
47.80231,108.0915,-1.382266,0.9898543,4.100276
47.85205,104.9128,-1.494823,0.9898543,4.106736
47.90168,88.38345,-1.544848,0.9896896,4.100276
47.95211,86.09478,-1.582367,0.9898543,4.100276
48.0029,84.569,-1.56736,0.9896896,4.100276
48.05119,83.80611,-1.609881,0.9898543,4.093818
48.10175,83.29751,-1.557355,0.9896896,4.093818
48.15207,81.77173,-1.624889,0.9896896,4.087358
48.20121,80.50024,-1.652402,0.9898543,4.106736
48.25261,85.20473,-1.662407,0.9896896,4.126113
48.30161,120.5521,-1.62739,0.9898543,4.145491
48.35158,137.3357,-1.374763,0.9898543,4.113195
48.40173,114.3218,-1.057102,0.9898543,4.106736
48.45127,101.2255,-0.8720094,0.9898543,4.087358
48.50245,90.29069,-0.7744598,0.9896896,4.042144
48.55184,96.13953,-0.7019232,0.9898543,4.042144
48.60172,106.1843,-0.6518983,0.9896896,4.087358
48.65179,107.5829,-0.5218326,0.9898543,4.087358
48.70172,92.32506,-0.3492453,0.9898543,4.093818
48.75246,88.38345,-0.2041719,0.9898543,4.093818
48.80232,85.33189,-0.08161043,0.9898543,4.093818
48.85119,84.18755,0.005933776,0.9898543,4.093818
48.90145,81.77173,0.07096619,0.9898543,4.093818
48.95123,82.40748,0.1660146,0.9898543,4.093818
49.00284,82.66177,0.2035331,0.9898543,4.087358
49.05231,80.24594,0.2160395,0.9896896,4.07444
49.1017,79.3559,0.2635632,0.9896896,4.07444
49.1512,95.12233,0.341103,0.9898543,4.080899
49.20148,135.4285,0.4411528,0.9898543,4.07444
49.25234,107.0743,0.5311981,0.9898543,4.07444
49.30184,93.08795,0.6512594,0.9896896,4.080899
49.35123,82.91606,0.6937801,0.9896896,4.080899
49.40202,97.41101,0.7363016,0.9898543,4.080899
49.45211,102.3698,0.7663167,0.9898543,4.080899
49.50225,105.6757,0.7838263,0.9896896,4.07444
49.55172,91.94361,0.7813243,0.9898543,4.080899
49.60232,87.49342,0.7788231,0.9898543,4.07444
49.65158,84.44184,0.7788231,0.9896896,4.07444
49.70118,83.42466,0.7713198,0.9896896,4.080899
49.75306,82.15317,0.7513092,0.9898543,4.080899
49.80136,81.00883,0.7112896,0.9798071,4.07444
49.85211,80.24594,0.663765,0.9798071,4.07444
49.90157,93.2151,0.6462563,0.9798071,4.07444
49.95171,132.6312,0.6137401,0.9798071,4.07444
50.00257,120.9335,0.5687174,0.9798071,4.067981
50.05145,101.2255,0.5211937,0.9796425,4.067981
50.10131,87.36626,0.4686668,0.9798071,4.067981
50.15222,82.28033,0.3686161,0.9798071,4.067981
50.20232,101.2255,0.2335481,0.9799718,4.067981
50.25245,103.6413,0.1309964,0.9798071,4.067981
50.30237,90.67213,0.08347264,0.9799718,4.067981
50.35169,87.62056,0.02594354,0.9796425,4.061522
50.40147,83.17036,-0.03158556,0.9798071,4.061522
50.45206,81.89888,-0.1191298,0.9798071,4.061522
50.50309,81.39028,-0.2341871,0.9798071,4.055062
50.55196,79.61021,-0.4442937,0.9798071,4.055062
50.60155,78.59301,-0.6343887,0.9798071,4.055062
50.65171,100.4626,-0.6769103,0.9798071,4.055062
50.70231,136.5728,-0.6894167,0.9798071,4.055062
50.75287,129.9611,-0.6844145,0.9798071,4.048604
50.80168,106.3114,-0.6994221,0.9798071,4.048604
50.85159,89.65494,-0.7669556,0.9798071,4.048604
50.90167,86.85767,-0.8494976,0.9798071,4.048604
50.9521,103.5141,-0.8820138,0.9798071,4.048604
51.00319,106.3114,-0.9595536,0.9799718,4.042144
51.05232,106.5657,-1.059603,0.9798071,4.048604
51.10209,91.68932,-1.122136,0.9798071,4.048604
51.15184,86.09478,-1.177163,0.9798071,4.042144
51.20231,83.80611,-1.314733,0.9798071,4.035685
51.25245,81.00883,-1.312231,0.9798071,4.035685
51.30146,79.86449,-1.677415,0.9798071,4.035685
51.3518,79.48306,-1.847501,0.9798071,4.035685
51.40162,100.844,-1.870012,0.9798071,4.035685
51.4522,137.0814,-1.86501,0.9798071,4.035685
51.50344,134.9198,-1.794974,0.9798071,4.035685
51.55171,111.0159,-1.774964,0.9798071,4.035685
51.60144,99.95398,-1.76746,0.9799718,4.029226
51.65146,90.79928,-1.757456,0.9798071,4.029226
51.70166,103.0055,-1.744949,0.9798071,4.022767
51.75294,108.7272,-1.744949,0.9799718,4.029226
51.80157,108.3458,-1.742448,0.9798071,4.022767
51.85205,93.46941,-1.739946,0.9796425,4.022767
51.90186,90.29069,-1.719936,0.9798071,4.022767
51.95235,88.7649,-1.662407,0.9798071,4.022767
52.00293,85.20473,-1.644899,0.9799718,4.022767
52.05194,84.569,-1.454803,0.9799718,4.016308
52.10204,84.18755,-1.372261,0.9798071,4.016308
52.15219,83.04321,-1.36976,0.9798071,4.022767
52.20222,88.5106,-1.297223,0.9798071,4.016308
52.25348,122.5864,-1.139644,0.9799718,4.016308
52.30234,127.7995,-0.8845149,0.9798071,4.016308
52.35174,110.1259,-0.7644545,0.9798071,4.009848
52.40244,102.2427,-0.6944199,0.9799718,4.009848
52.45219,90.16354,-0.6018725,0.9798071,4.009848
52.50286,100.3354,-0.4593013,0.9799718,4.009848
52.55202,107.5829,-0.3517464,0.9798071,4.009848
52.60135,108.8544,-0.2566988,0.9798071,4.003389
52.65131,93.978,-0.08411153,0.9798071,4.003389
52.70224,89.14634,0.02594354,0.9798071,4.003389
52.75259,86.85767,0.08097153,0.9798071,4.003389
52.80196,85.33189,0.1885255,0.9798071,3.99693
52.85158,85.45904,0.2460546,0.9799718,4.003389
52.90143,84.18755,0.3235935,0.9798071,4.003389
52.95243,83.17036,0.3486063,0.9799718,3.99693
53.00318,81.64457,0.3686161,0.9799718,3.99693
53.05179,93.34225,0.4111377,0.9798071,3.99693
53.1021,93.34225,0.4736699,0.9798071,3.99693
53.15247,130.0882,0.583725,0.9798071,3.99693
53.20171,106.0571,0.668768,0.9798071,3.990471
53.25245,88.7649,0.6937801,0.9798071,3.99693
53.3023,85.20473,0.6962821,0.9796425,3.99693
53.35229,103.8956,0.6887779,0.9798071,3.990471
53.40197,105.6757,0.6712692,0.9798071,3.990471
53.45154,106.6929,0.663765,0.9798071,3.990471
53.50268,89.14634,0.6462563,0.9798071,3.990471
53.55245,86.34908,0.5912292,0.9798071,3.990471
53.60158,84.95044,0.5762216,0.9799718,3.984012
53.65195,83.29751,0.4936797,0.9798071,3.984012
53.70171,82.91606,0.4286472,0.9798071,3.984012
53.75282,80.88168,0.2560599,0.9799718,3.984012
53.80232,80.24594,0.09848019,0.9799718,3.984012
53.85196,85.33189,-0.009073775,0.9799718,3.977553
53.90192,126.7823,-0.09661798,0.9799718,3.984012
53.95209,121.0607,-0.1966686,0.9798071,3.977553
54.00286,106.4386,-0.2341871,0.9798071,3.977553
54.05182,93.46941,-0.3017215,0.9799718,3.971093
54.10169,84.82329,-0.4067743,0.9798071,3.977553
54.15197,96.77527,-0.4918174,0.9798071,3.977553
54.2027,104.4042,-0.5793617,0.9798071,3.977553
54.25334,106.1843,-0.6043736,0.9798071,3.971093
54.30202,89.78209,-0.6168801,0.9798071,3.971093
54.35217,84.82329,-0.6318876,0.9799718,3.971093
54.40179,82.28033,-0.6468952,0.9799718,3.971093
54.45292,82.53461,-0.6844145,0.9798071,3.971093
54.50357,82.02603,-0.7894674,0.9798071,3.971093
54.55259,81.64457,-0.8494976,0.9799718,3.971093
54.60192,79.86449,-1.122136,0.9799718,3.971093
54.65235,78.21156,-1.482317,0.9798071,3.964634
54.70241,100.2083,-1.669912,0.9798071,3.964634
54.75328,135.3013,-1.724939,0.9798071,3.971093
54.80241,128.6896,-1.664909,0.9799718,3.964634
54.85168,104.6585,-1.654904,0.9798071,3.964634
54.90194,92.45221,-1.689921,0.9798071,3.964634
54.95256,89.65494,-1.719936,0.9799718,3.964634
55.00316,102.497,-1.772463,0.9799718,3.964634
55.05244,106.9472,-1.794974,0.9798071,3.964634
55.10244,106.82,-1.794974,0.9799718,3.964634
55.15228,91.05358,-1.794974,0.9798071,3.964634
55.20329,85.58618,-1.797475,0.9799718,3.964634
55.25347,83.93326,-1.799976,0.9798071,3.958175
55.30167,83.29751,-1.787471,0.9798071,3.964634
55.35168,81.77173,-1.799976,0.9798071,3.958175
55.40191,81.77173,-1.714934,0.9798071,3.964634
55.45345,80.62739,-1.717435,0.9798071,3.964634
55.50266,78.08442,-1.709931,0.9798071,3.958175
55.55195,79.86449,-1.717435,0.9799718,3.964634
55.60184,125.1294,-1.614884,0.9799718,3.958175
55.65243,121.0607,-1.197173,0.9798071,3.964634
55.70327,105.6757,-0.9195331,0.9799718,3.958175
55.75246,93.72369,-0.8169814,0.9798071,3.958175
55.80166,88.5106,-0.7544501,0.9798071,3.951716
55.85158,101.4798,-0.6794123,0.9799718,3.958175
55.90245,105.1671,-0.5418423,0.9798071,3.951716
55.95294,106.82,-0.4392906,0.9798071,3.951716
56.00266,91.68932,-0.2917162,0.9799718,3.958175
56.0518,86.60338,-0.1841622,0.9798071,3.958175
56.10221,84.569,-0.05159533,0.9799718,3.951716
56.15245,82.28033,0.03844998,0.9798071,3.958175
56.20369,81.89888,0.1084855,0.9799718,3.951716
56.25319,80.88168,0.1685157,0.9798071,3.958175
56.30264,80.50024,0.2060342,0.9798071,3.951716
56.35219,79.86449,0.2360493,0.9798071,3.951716
56.40233,79.10161,0.2685664,0.9799718,3.951716
56.45345,83.29751,0.3586117,0.9798071,3.951716
56.50281,132.6312,0.4336495,0.9798071,3.951716
56.55203,105.8028,0.501183,0.9798071,3.951716
56.6017,95.75809,0.5812238,0.9798071,3.951716
56.65227,82.53461,0.6537606,0.9798071,3.951716
56.70272,87.11198,0.6537606,0.9798071,3.951716
56.75361,102.1155,0.6537606,0.9798071,3.951716
56.8023,104.277,0.6412541,0.9799718,3.945257
56.85189,90.79928,0.6162412,0.9798071,3.945257
56.90164,84.569,0.5762216,0.9799718,3.945257
56.95264,82.78893,0.5712186,0.9799718,3.945257
57.00282,82.28033,0.5236948,0.9799718,3.945257
57.05159,80.75454,0.4936797,0.9799718,3.945257
57.10166,80.37309,0.4536592,0.9799718,3.945257
57.15241,80.24594,0.3861257,0.9898543,3.938797
57.20267,79.73734,0.2035331,0.9900191,3.945257
57.25353,88.38345,0.09097688,0.9898543,3.938797
57.30207,131.4868,0.03844998,0.9898543,3.938797
57.35153,104.9128,-0.001570461,0.9898543,3.938797
57.40201,93.08795,-0.1541471,0.9900191,3.938797
57.45291,81.77173,-0.3292355,0.9898543,3.938797
57.50364,85.71333,-0.4367895,0.9898543,3.938797
57.55191,96.52097,-0.5418423,0.9898543,3.938797
57.60239,103.6413,-0.5993714,0.9898543,3.938797
57.65158,91.43503,-0.6844145,0.9898543,3.938797
57.70368,86.47623,-0.7094274,0.9900191,3.932338
57.75365,81.26313,-0.7369405,0.9898543,3.932338
57.80277,80.11879,-0.7469459,0.9799718,3.938797
57.85215,79.73734,-0.8319889,0.9798071,3.932338
57.90228,78.21156,-0.8570018,0.9799718,3.932338
57.95267,77.83012,-1.032089,0.9799718,3.932338
58.00364,76.94007,-1.279714,0.9801366,3.925879
58.05188,97.15671,-1.652402,0.9799718,3.932338
58.10242,122.0779,-1.74745,0.9798071,3.932338
58.15216,122.5864,-1.669912,0.9799718,3.932338
58.20317,107.5829,-1.649901,0.9799718,3.925879
58.25288,96.13953,-1.664909,0.9799718,3.925879
58.30219,87.11198,-1.712433,0.9798071,3.932338
58.35265,99.69969,-1.719936,0.9799718,3.925879
58.40158,105.2942,-1.737445,0.9798071,3.925879
58.45316,106.4386,-1.732443,0.9799718,3.925879
58.5027,90.67213,-1.744949,0.9798071,3.925879
58.55246,85.71333,-1.74745,0.9799718,3.91942
58.60255,83.55181,-1.777466,0.9799718,3.91942
58.65164,82.91606,-1.789972,0.9798071,3.91942
58.70327,81.77173,-1.860008,0.9798071,3.91942
58.75303,80.50024,-1.852503,0.9798071,3.91942
58.80276,79.73734,-2.007582,0.9900191,3.91942
58.85188,78.59301,-2.06511,0.9898543,3.91942
58.90205,87.87486,-1.92504,0.9898543,3.912961
58.95329,133.1398,-1.744949,0.9900191,3.912961
59.0034,134.6656,-1.542347,0.9900191,3.912961
59.05167,106.0571,-1.284718,0.9900191,3.912961
59.10266,101.7341,-1.002074,0.9898543,3.912961
59.15178,88.25631,-0.9020245,0.9898543,3.912961
59.20357,101.3526,-0.7919685,0.9900191,3.912961
59.25339,105.5485,-0.6994221,0.9898543,3.912961
59.30256,106.82,-0.5943692,0.9898543,3.912961
59.35187,90.29069,-0.4968197,0.9898543,3.912961
59.40242,86.09478,-0.3267344,0.9900191,3.906502
59.4537,84.569,-0.2091751,0.9898543,3.906502
59.50317,82.91606,-0.04909422,0.9898543,3.912961
59.55179,84.3147,0.005933776,0.9898543,3.906502
59.60212,83.55181,0.06346288,0.9900191,3.912961
59.65268,82.15317,0.07847043,0.9900191,3.906502
59.70367,78.46587,0.09347798,0.9900191,3.906502
59.7535,86.73053,0.1334984,0.9898543,3.906502
59.80242,120.0435,0.1860244,0.9898543,3.906502
59.85178,119.4077,0.3060848,0.9898543,3.906502
59.90254,107.2015,0.3986312,0.9898543,3.900043
59.95341,91.81647,0.4686668,0.9898543,3.900043
60.00365,82.40748,0.5537099,0.9900191,3.906502
60.05178,98.80965,0.6212443,0.9896896,3.906502
60.10241,104.4042,0.6362519,0.9898543,3.900043
60.15202,105.8028,0.6412541,0.9896896,3.900043
60.20295,90.54498,0.6362519,0.9900191,3.900043
60.25316,87.87486,0.6087379,0.9898543,3.900043
60.30291,84.44184,0.6012337,0.9898543,3.893583
60.35215,82.91606,0.5362012,0.9900191,3.900043
60.40228,81.64457,0.5086872,0.9898543,3.893583
60.45354,81.77173,0.4136397,0.9898543,3.900043
60.50298,81.26313,0.2985815,0.9898543,3.893583
60.55212,84.44184,0.1410017,0.9900191,3.893583
60.6029,115.8476,0.07847043,0.9900191,3.893583
60.65231,121.315,0.05345754,0.9900191,3.887124
60.7034,109.2358,0.02094133,0.9898543,3.893583
60.75312,92.96081,-0.02658243,0.9898543,3.887124
60.80273,84.0604,-0.1216309,0.9898543,3.893583
60.85289,98.04675,-0.2792097,0.9898543,3.893583
60.90215,104.1499,-0.3317366,0.9898543,3.893583
60.95279,105.5485,-0.4442937,0.9898543,3.887124
61.00327,90.67213,-0.5268348,0.9900191,3.887124
61.05277,86.47623,-0.5993714,0.9900191,3.887124
61.10262,84.44184,-0.6043736,0.9941368,3.887124
61.15286,82.91606,-0.6543994,1.000066,3.887124
61.20327,83.42466,-0.6518983,0.9999016,3.887124
61.25277,82.40748,-0.7319383,1.000066,3.887124
61.30256,81.77173,-0.9395429,0.999737,3.880665
61.35228,86.34908,-1.174662,0.9999016,3.880665
61.40266,131.1054,-1.457304,0.9999016,3.880665
61.45361,137.7171,-1.607379,0.9999016,3.880665
61.50376,116.229,-1.56736,0.9999016,3.880665
61.55224,104.1499,-1.589871,0.9999016,3.880665
61.60252,92.7065,-1.66741,0.9999016,3.880665
61.65225,94.48659,-1.692423,0.9999016,3.880665
61.70362,106.82,-1.749952,0.9999016,3.880665
61.75327,108.3458,-1.784969,0.9999016,3.874206
61.80231,93.72369,-1.819987,0.9999016,3.880665
61.85274,89.78209,-1.86501,0.999737,3.880665
61.90202,86.34908,-1.852503,0.999737,3.874206
61.95351,84.95044,-1.829992,0.999737,3.874206
62.00312,84.18755,-1.839997,0.9999016,3.874206
62.05204,83.42466,-1.832494,0.9999016,3.874206
62.10179,82.40748,-1.870012,0.999737,3.874206
62.1525,81.39028,-2.002579,0.999737,3.867747
62.20392,76.68578,-2.100128,1.000066,3.867747
62.2534,114.5761,-2.025091,0.9999016,3.867747
62.30243,136.1913,-1.882519,0.999737,3.867747
62.35286,108.9815,-1.852503,0.999737,3.867747
62.40187,99.69969,-1.629891,1.000066,3.867747
62.45382,87.49342,-1.264707,0.9999016,3.867747
62.50325,95.37663,-1.102125,0.9999016,3.867747
62.55224,103.5141,-0.9770622,0.9999016,3.861288
62.60229,105.5485,-0.8695074,0.9999016,3.861288
62.65265,91.81647,-0.7519481,0.999737,3.861288
62.70325,87.87486,-0.5943692,0.9999016,3.861288
62.75315,85.20473,-0.4618024,0.999737,3.861288
62.80289,83.04321,-0.344243,0.9999016,3.861288
62.85236,82.15317,-0.2591999,0.9999016,3.861288
62.90188,81.77173,-0.1816611,0.9999016,3.854828
62.95348,81.77173,-0.09411687,0.9999016,3.854828
63.00302,80.50024,-0.06660288,0.9999016,3.854828
63.0519,81.64457,-0.03158556,0.999737,3.861288
63.10224,83.29751,0.005933776,0.9999016,3.854828
63.15177,124.8751,0.09097688,0.9999016,3.861288
63.20361,112.1602,0.2035331,0.9999016,3.848369
63.2529,99.06393,0.2735686,0.9999016,3.848369
63.30236,86.85767,0.341103,0.999737,3.848369
63.35294,92.57936,0.3961301,0.9999016,3.854828
63.40274,100.7169,0.4511581,0.9999016,3.848369
63.45342,106.4386,0.5136894,0.9999016,3.848369
63.50298,91.68932,0.583725,0.9999016,3.848369
63.55261,89.40065,0.6187423,0.999737,3.848369
63.60188,86.09478,0.6412541,0.9999016,3.848369
63.65266,84.44184,0.6437552,0.999737,3.848369
63.70302,84.0604,0.6137401,0.999737,3.84191
63.75287,84.82329,0.5762216,0.9999016,3.848369
63.80239,84.44184,0.501183,0.9900191,3.848369
63.85299,80.88168,0.448657,0.9900191,3.84191
63.9026,85.58618,0.3886268,0.9898543,3.84191
63.95388,128.4353,0.3110879,0.9898543,3.84191
64.00312,129.4525,0.2660653,0.9898543,3.835451
64.05229,106.1843,0.1735179,0.9898543,3.84191
64.10188,98.9368,0.1234931,0.9900191,3.835451
64.15261,87.11198,0.08097153,0.9898543,3.835451
64.20337,105.4214,0.02844464,0.9900191,3.835451
64.25384,106.9472,-0.02908354,0.9900191,3.835451
64.30229,108.0915,-0.1716557,0.9898543,3.835451
64.35263,90.29069,-0.2992204,0.9898543,3.835451
64.40252,86.85767,-0.3942679,0.9900191,3.835451
64.45401,84.44184,-0.4843132,0.9898543,3.835451
64.50347,84.18755,-0.5868649,0.9898543,3.828992
64.55265,82.91606,-0.6093768,0.9898543,3.828992
64.60198,82.15317,-0.6518983,0.9898543,3.835451
64.65238,80.50024,-0.8595029,0.9898543,3.828992
64.703,82.15317,-1.102125,0.9898543,3.822533
64.75285,131.2325,-1.224686,0.9900191,3.828992
64.80238,136.3185,-1.364758,0.9898543,3.828992
64.85224,125.5108,-1.377264,0.9898543,3.822533
64.903,103.6413,-1.464808,0.9900191,3.822533
64.95315,92.07076,-1.564859,0.9898543,3.828992
65.00362,94.86804,-1.694924,0.9898543,3.822533
65.05211,107.0743,-1.737445,0.9898543,3.822533
65.10236,108.7272,-1.74745,0.9898543,3.822533
65.15301,96.90242,-1.789972,0.9898543,3.822533
65.20411,91.68932,-1.802479,0.9900191,3.816073
65.25386,86.34908,-1.829992,0.9900191,3.816073
65.30196,83.80611,-1.812483,0.9898543,3.816073
65.35302,83.67896,-1.847501,0.9898543,3.816073
65.4026,83.55181,-1.777466,0.9900191,3.816073
65.45412,82.78893,-1.842498,0.9896896,3.809614
65.50385,80.24594,-1.80498,0.9898543,3.809614
65.5526,86.60338,-1.819987,0.9898543,3.816073
65.60261,129.9611,-1.762458,0.9898543,3.816073
65.65228,133.6484,-1.547349,0.9898543,3.816073
65.70354,109.2358,-1.247198,0.9898543,3.809614
65.75342,103.387,-1.004576,0.9898543,3.809614
65.80204,92.19792,-0.8795127,0.9900191,3.809614
65.8526,101.3526,-0.7694576,0.9898543,3.809614
65.9021,106.4386,-0.669407,0.9896896,3.809614
65.95375,108.7272,-0.5143283,0.9898543,3.809614
66.00303,93.34225,-0.3617517,0.9898543,3.803155
66.05225,88.63776,-0.2291848,0.9900191,3.803155
66.10212,86.34908,-0.08661264,0.9898543,3.803155
66.15301,85.84048,0.03344778,0.9900191,3.803155
66.20362,83.67896,0.09097688,0.9898543,3.803155
66.25322,82.66177,0.1635135,0.9898543,3.809614
66.30232,82.53461,0.1810222,0.9900191,3.803155
66.35208,80.11879,0.1935286,0.9898543,3.803155
66.40236,88.5106,0.2360493,0.9898543,3.803155
66.45303,129.3253,0.2810728,0.9900191,3.803155
66.50372,132.7583,0.3911279,0.9896896,3.803155
66.55309,105.5485,0.4736699,0.9896896,3.796696
66.60263,93.978,0.5487077,0.9898543,3.803155
66.65251,84.569,0.638753,0.9898543,3.803155
66.70351,99.82683,0.6737703,0.9898543,3.803155
66.75325,106.1843,0.6837756,0.9898543,3.803155
66.8021,106.6929,0.6862767,0.9898543,3.803155
66.85283,90.54498,0.6787725,0.9898543,3.803155
66.90297,86.98483,0.666267,0.9898543,3.796696
66.95398,84.95044,0.6562616,0.9896896,3.796696
67.00361,84.69615,0.6312487,0.9900191,3.796696
67.05215,84.69615,0.6137401,0.9898543,3.803155
67.10225,84.569,0.5211937,0.9898543,3.796696
67.15322,81.77173,0.4561603,0.9898543,3.796696
67.2034,81.64457,0.4836743,0.9898543,3.796696
67.25414,119.662,0.4986819,0.9898543,3.796696
67.30299,133.9027,0.4861754,0.9898543,3.796696
67.3529,112.6688,0.4736699,0.9898543,3.796696
67.40213,100.0811,0.4561603,0.9898543,3.796696
67.45388,86.09478,0.3636139,0.9898543,3.796696
67.50412,94.2323,0.2210417,0.9898543,3.796696
67.55262,100.9712,0.1109866,0.9898543,3.796696
67.60238,105.4214,-0.09911908,0.9898543,3.796696
67.65225,91.18073,-0.2466935,0.9898543,3.796696
67.7037,85.96764,-0.3392399,0.9898543,3.790237
67.75314,83.67896,-0.4918174,0.9896896,3.796696
67.80257,82.91606,-0.5468454,0.9801366,3.796696
67.852,82.53461,-0.5893661,0.9798071,3.796696
67.902,82.15317,-0.6093768,0.9798071,3.796696
67.95359,81.39028,-0.7744598,0.9798071,3.796696
68.00371,78.72016,-1.019584,0.9798071,3.790237
68.05214,89.14634,-1.322236,0.9799718,3.796696
68.10274,89.0192,-1.447299,0.9798071,3.796696
68.15214,127.2909,-1.467309,0.9798071,3.796696
68.20309,108.0915,-1.492322,0.9799718,3.796696
68.25358,98.30104,-1.517334,0.9798071,3.796696
68.30258,89.90925,-1.539846,0.9798071,3.796696
68.35299,97.9196,-1.559856,0.9799718,3.796696
68.40221,105.2942,-1.56736,0.9799718,3.796696
68.45337,107.2015,-1.562357,0.9798071,3.790237
68.50311,93.08795,-1.58737,0.9798071,3.790237
68.55208,88.63776,-1.602377,0.9796425,3.796696
68.603,84.569,-1.614884,0.9799718,3.790237
68.65287,82.40748,-1.577364,0.9799718,3.796696
68.70363,82.15317,-1.604878,0.9798071,3.790237
68.754,82.15317,-1.552352,0.9799718,3.790237
68.80248,81.64457,-1.639897,0.9898543,3.796696
68.85308,79.86449,-1.702428,0.9900191,3.796696
68.9022,82.15317,-1.774964,0.9898543,3.790237
68.95337,125.638,-1.769961,0.9898543,3.790237
69.00384,135.6828,-1.74745,0.9898543,3.790237
69.05207,109.6173,-1.727441,0.9898543,3.790237
69.1027,101.0983,-1.70743,0.9898543,3.790237
69.15324,91.05358,-1.68742,0.9896896,3.790237
69.20422,94.35944,-1.654904,0.9898543,3.790237
69.25385,104.4042,-1.582367,0.9900191,3.783778
69.30275,106.0571,-1.494823,0.9898543,3.790237
69.35233,101.8612,-1.342246,0.9898543,3.790237
69.403,87.87486,-1.099624,0.9900191,3.790237
69.45409,84.44184,-0.9345407,0.9898543,3.790237
69.50417,83.17036,-0.8169814,0.9896896,3.783778
69.55232,82.02603,-0.7394425,0.9898543,3.790237
69.60234,80.88168,-0.696921,0.9898543,3.783778
69.65284,81.26313,-0.6343887,0.9898543,3.790237
69.70406,79.3559,-0.6443941,0.9896896,3.783778
69.75385,77.19438,-0.6093768,0.9898543,3.783778
69.80325,112.5417,-0.5318379,0.9898543,3.783778
69.85282,135.4285,-0.4042732,0.9898543,3.783778
69.90297,124.4937,-0.2266837,0.9898543,3.783778
69.9539,103.7684,-0.07660822,0.9896896,3.783778
70.00376,93.2151,0.005933776,0.9896896,3.777318
70.05273,86.85767,0.06346288,0.9898543,3.777318
70.1031,93.46941,0.1184909,0.9896896,3.777318
70.15282,104.277,0.1985308,0.9898543,3.777318
70.2042,98.55534,0.2735686,0.9896896,3.777318
70.25381,89.14634,0.366115,0.9896896,3.777318
70.30327,85.20473,0.4436548,0.9898543,3.777318
70.35261,83.42466,0.5086872,0.9898543,3.777318
70.4032,84.0604,0.5912292,0.9898543,3.777318
70.45419,83.55181,0.6612638,0.9898543,3.777318
70.50375,83.29751,0.6862767,0.9896896,3.777318
70.55282,80.62739,0.6762714,0.9898543,3.777318
70.6032,80.11879,0.6487574,0.9900191,3.777318
70.65308,87.62056,0.6012337,0.9898543,3.770859
70.70432,128.8167,0.5587121,0.9896896,3.770859
70.75333,114.7032,0.5537099,0.9898543,3.770859
70.80294,101.6069,0.5236948,0.9900191,3.777318
70.8522,85.45904,0.5086872,0.9898543,3.777318
70.90284,82.66177,0.4836743,0.9896896,3.770859
70.95322,99.31824,0.4636646,0.9898543,3.770859
71.00394,105.1671,0.4236441,0.9898543,3.770859
71.0528,93.08795,0.3461052,0.9898543,3.770859
71.10233,88.38345,0.2735686,0.9896896,3.770859
71.1532,85.71333,0.2060342,0.9898543,3.770859
71.20422,82.40748,0.1585104,0.9898543,3.770859
71.2542,81.26313,0.1059844,0.9898543,3.770859
71.3026,81.00883,0.07096619,0.9898543,3.7644
71.35252,81.00883,-0.08411153,0.9896896,3.7644
71.40298,79.3559,-0.3367388,0.9898543,3.7644
71.45341,83.29751,-0.5268348,0.9896896,3.7644
71.50363,115.339,-0.5793617,0.9898543,3.7644
71.55283,129.9611,-0.5693563,0.9896896,3.7644
71.60319,107.5829,-0.5768605,0.9898543,3.7644
71.65301,97.28386,-0.5893661,0.9898543,3.7644
71.70396,86.09478,-0.6068757,0.9896896,3.7644
71.75358,94.99519,-0.6293865,0.9896896,3.7644
71.80286,103.5141,-0.641893,0.9900191,3.7644
71.85338,105.4214,-0.6994221,0.9898543,3.7644
71.90224,90.79928,-0.7844652,0.9898543,3.757941
71.95419,87.11198,-0.8194825,0.9896896,3.7644
72.00435,83.42466,-0.8369911,0.9898543,3.757941
72.05285,83.29751,-0.8494976,0.9896896,3.757941
72.1026,82.28033,-0.9620547,0.9898543,3.757941
72.15306,81.39028,-1.009578,0.9898543,3.757941
72.20332,80.88168,-1.28972,0.9898543,3.757941
72.2541,79.3559,-1.617385,0.9898543,3.751482
72.30281,82.53461,-1.744949,0.9898543,3.757941
72.35232,135.047,-1.759957,0.9898543,3.757941
72.40224,134.157,-1.717435,0.9898543,3.757941
72.45432,103.7684,-1.697425,0.9898543,3.757941
72.50441,96.13953,-1.694924,0.9896896,3.757941
72.55309,90.54498,-1.694924,0.9896896,3.751482
72.60271,103.0055,-1.699927,0.9898543,3.751482
72.6526,105.0399,-1.677415,0.9898543,3.757941
72.70335,98.1739,-1.682417,0.9896896,3.751482
72.75438,91.43503,-1.719936,0.9896896,3.751482
72.80255,86.85767,-1.714934,0.9898543,3.751482
72.85332,84.69615,-1.70743,0.9900191,3.751482
72.90231,83.42466,-1.682417,0.9898543,3.751482
72.95421,82.91606,-1.689921,0.9896896,3.751482
73.00344,83.04321,-1.662407,0.9898543,3.757941
73.05238,81.89888,-1.677415,0.9898543,3.751482
73.10334,80.24594,-1.677415,0.9898543,3.745023
73.15229,85.07759,-1.672413,0.9896896,3.751482
73.20406,109.7444,-1.509831,0.9898543,3.751482
73.25372,129.7068,-1.227188,0.9898543,3.751482
73.30237,106.5657,-1.057102,0.989525,3.751482
73.35233,97.02956,-0.9195331,0.9896896,3.751482
73.4032,88.25631,-0.8319889,0.9898543,3.751482
73.45385,101.0983,-0.7344394,0.9898543,3.757941
73.50359,105.2942,-0.6569005,0.9898543,3.757941
73.55225,106.82,-0.5518476,0.9896896,3.757941
73.60318,91.56216,-0.4267841,0.9898543,3.757941
73.6526,85.96764,-0.2942173,0.9896896,3.7644
73.70383,85.20473,-0.1816611,0.9898543,3.7644
73.7543,83.55181,-0.04409109,0.9898543,3.7644
73.80336,81.64457,0.02344243,0.999737,3.770859
73.85332,82.53461,0.08097153,0.999737,3.770859
73.90231,81.39028,0.1109866,0.999737,3.770859
73.95356,79.3559,0.1234931,0.999737,3.777318
74.00395,82.15317,0.1385006,0.9999016,3.777318
74.05334,102.6241,0.1710168,0.999737,3.777318
74.10252,124.8751,0.2535588,0.999737,3.783778
74.15334,103.0055,0.3711182,0.9999016,3.783778
74.20356,91.30788,0.4386517,0.999737,3.783778
74.25331,84.95044,0.4986819,0.999737,3.783778
74.30297,95.37663,0.5587121,0.999737,3.790237
74.35259,103.0055,0.6462563,0.9999016,3.790237
74.40308,106.3114,0.6812745,0.999737,3.790237
74.45356,92.7065,0.6837756,0.999737,3.796696
74.50397,87.49342,0.6787725,0.999737,3.796696
74.55257,84.95044,0.6737703,0.9999016,3.796696
74.60324,82.40748,0.668768,0.999737,3.803155
74.65231,82.15317,0.6312487,0.9999016,3.803155
74.70356,82.53461,0.6062368,0.999737,3.809614
74.75358,82.53461,0.5261959,0.999737,3.809614
74.80305,79.86449,0.4586624,0.999737,3.816073
74.85319,94.61374,0.3711182,0.9999016,3.809614
74.90258,127.4181,0.2910773,0.999737,3.816073
74.95367,130.4697,0.2335481,0.9995722,3.822533
75.00381,106.1843,0.201032,0.9999016,3.822533
75.05357,91.43503,0.1535082,0.9999016,3.828992
75.10331,83.67896,0.09597909,0.9999016,3.828992
75.15266,92.32506,0.03094667,0.999737,3.828992
75.20406,103.2598,-0.03408667,0.999737,3.835451
75.2536,105.2942,-0.1741568,0.999737,3.835451
75.30316,88.38345,-0.2341871,0.9999016,3.835451
75.35332,85.07759,-0.2842128,0.999737,3.835451
75.40293,82.15317,-0.3317366,0.9999016,3.84191
75.4538,81.77173,-0.4217819,0.999737,3.835451
75.50446,79.86449,-0.4843132,0.999737,3.84191
75.55283,80.50024,-0.5568499,0.999737,3.84191
75.60267,79.86449,-0.6468952,0.999737,3.84191
75.65308,79.61021,-0.7844652,0.9999016,3.848369
75.70411,105.0399,-0.889518,0.999737,3.848369
75.75358,132.7583,-0.9395429,0.9999016,3.848369
75.80269,121.315,-0.9370418,0.999737,3.848369
75.8529,104.1499,-0.9370418,0.9999016,3.848369
75.90354,92.7065,-0.9795634,0.999737,3.854828
75.95374,89.40065,-1.027087,0.9999016,3.854828
76.00374,101.0983,-1.082115,0.999737,3.854828
76.05299,105.93,-1.144646,0.999737,3.861288
76.10282,96.90242,-1.217183,0.9999016,3.861288
76.15305,89.65494,-1.342246,0.9999016,3.861288
76.20368,84.69615,-1.432292,0.999737,3.861288
76.25393,82.78893,-1.422287,0.999737,3.861288
76.30289,81.89888,-1.459805,0.999737,3.861288
76.35256,81.26313,-1.497324,0.999737,3.867747
76.40337,81.00883,-1.569861,0.9999016,3.867747
76.45408,79.48306,-1.807481,0.999737,3.867747
76.50454,81.51743,-1.877516,0.9999016,3.867747
76.55307,83.42466,-1.877516,0.999737,3.867747
76.60252,127.0366,-1.855004,0.9999016,3.867747
76.65243,109.1087,-1.797475,0.999737,3.867747
76.70431,97.79247,-1.809982,0.9999016,3.867747
76.75354,90.41783,-1.80498,0.999737,3.867747
76.80342,91.68932,-1.782468,0.9999016,3.867747
76.85305,101.3526,-1.764959,0.9999016,3.874206
76.90331,105.6757,-1.699927,0.999737,3.867747
76.95419,94.61374,-1.559856,0.999737,3.874206
77.00385,88.25631,-1.367259,0.9999016,3.874206
77.05329,85.20473,-1.104626,0.999737,3.874206
77.10276,84.18755,-0.9045256,0.9908426,3.867747
77.15355,83.29751,-0.8169814,0.9898543,3.874206
77.20391,82.15317,-0.7219329,0.9898543,3.874206
77.2543,81.39028,-0.6744092,0.9898543,3.874206
77.30254,80.24594,-0.6669059,0.9898543,3.874206
77.35266,77.95727,-0.6318876,0.9898543,3.874206
77.40257,106.0571,-0.5143283,0.9900191,3.867747
77.45451,135.6828,-0.3567495,0.9896896,3.874206
77.50353,112.6688,-0.1891644,0.9898543,3.874206
77.5527,99.44539,-0.08411153,0.9898543,3.867747
77.60294,88.5106,0.02094133,0.9898543,3.874206
77.65318,88.12916,0.07096619,0.9898543,3.867747
77.70428,103.5141,0.1410017,0.9896896,3.874206
77.75415,106.1843,0.2185406,0.9898543,3.867747
77.80252,93.46941,0.2910773,0.9898543,3.867747
77.85356,87.23911,0.3761204,0.9896896,3.867747
77.90331,84.3147,0.4561603,0.9896896,3.867747
77.95431,84.0604,0.5387023,0.9896896,3.874206
78.00455,84.44184,0.6087379,0.9896896,3.867747
78.05283,83.67896,0.6487574,0.9898543,3.867747
78.10315,82.91606,0.6462563,0.9898543,3.867747
78.15354,81.26313,0.638753,0.9898543,3.867747
78.20452,91.56216,0.6537606,0.9898543,3.867747
78.25436,130.3425,0.6587628,0.9896896,3.861288
78.30354,123.4765,0.6612638,0.9898543,3.867747
78.35263,103.2598,0.6287476,0.9896896,3.861288
78.40331,87.87486,0.5987325,0.9898543,3.861288
78.45354,83.55181,0.5712186,0.9898543,3.861288
78.50379,101.7341,0.5612141,0.9898543,3.861288
78.55329,104.7856,0.5412034,0.9898543,3.861288
78.60268,94.48659,0.5311981,0.9898543,3.861288
78.6528,88.63776,0.5061861,0.9898543,3.861288
78.70452,86.85767,0.4836743,0.9898543,3.861288
78.75365,83.80611,0.448657,0.9898543,3.861288
78.80328,82.40748,0.3586117,0.9900191,3.861288
78.85253,82.53461,0.2460546,0.9896896,3.854828
78.90353,81.77173,0.08847485,0.9900191,3.854828
78.95364,81.64457,-0.1541471,0.9898543,3.861288
79.00376,86.85767,-0.2917162,0.9900191,3.854828
79.0528,128.181,-0.4142786,0.9898543,3.854828
79.10278,132.3769,-0.4743088,0.9898543,3.848369
79.15256,112.1602,-0.5393412,0.9896896,3.854828
79.20427,89.2735,-0.5893661,0.9896896,3.854828
79.2543,90.79928,-0.6068757,0.9898543,3.854828
79.30328,104.9128,-0.6594017,0.9898543,3.854828
79.35284,107.2015,-0.7119285,0.9898543,3.848369
79.40341,95.50377,-0.7869663,0.9898543,3.848369
79.45415,90.29069,-0.8219836,0.9898543,3.848369
79.50352,87.36626,-0.8695074,0.9898543,3.848369
79.55268,86.60338,-0.9245353,0.9896896,3.848369
79.60352,85.84048,-0.9995731,0.9898543,3.848369
79.65353,84.569,-1.0521,0.9896896,3.848369
79.70401,83.42466,-1.374763,0.9898543,3.848369
79.75356,83.67896,-1.714934,0.9898543,3.84191
79.80293,105.1671,-1.774964,0.9896896,3.84191
79.85327,136.6999,-1.754954,0.9898543,3.84191
79.90327,128.0538,-1.719936,0.9896896,3.84191
79.95429,105.8028,-1.704929,0.9896896,3.84191
80.00378,99.19109,-1.694924,0.9898543,3.835451
80.05268,93.08795,-1.717435,0.9896896,3.835451
80.10292,100.7169,-1.672413,0.9898543,3.835451
80.15343,109.2358,-1.672413,0.9898543,3.84191
80.20377,96.90242,-1.659906,0.9898543,3.835451
80.25381,91.05358,-1.594874,0.9896896,3.835451
80.3037,89.40065,-1.38977,0.9896896,3.828992
80.35364,87.36626,-1.067108,0.9898543,3.835451
80.40292,86.60338,-0.9220343,0.9898543,3.828992
80.4546,85.58618,-0.7519481,0.999737,3.828992
80.50412,84.82329,-0.724435,0.9999016,3.835451
80.5529,82.40748,-0.7019232,0.999737,3.828992
80.60313,82.91606,-0.6744092,0.9999016,3.828992
80.65268,122.8407,-0.5493466,0.9999016,3.828992
80.70362,133.7755,-0.3517464,0.9999016,3.828992
80.75378,109.2358,-0.1591493,0.9999016,3.828992
80.80326,100.0811,-0.02158022,0.9999016,3.828992
80.85268,91.30788,0.04345219,0.9999016,3.828992
80.90383,102.7513,0.08097153,0.9999016,3.822533
80.9548,108.3458,0.1435028,0.999737,3.822533
81.00432,109.2358,0.201032,0.9999016,3.828992
81.05355,93.2151,0.2635632,0.999737,3.822533
81.10338,91.18073,0.366115,0.999737,3.816073
81.15353,87.49342,0.4261452,0.999737,3.822533
81.20469,84.82329,0.4911786,0.9999016,3.822533
81.25389,84.82329,0.5211937,0.999737,3.816073
81.30367,85.20473,0.5537099,0.9999016,3.816073
81.35314,83.67896,0.5812238,0.999737,3.816073
81.40366,82.28033,0.5912292,0.999737,3.816073
81.45377,92.19792,0.6362519,0.9999016,3.822533
81.50471,130.2153,0.6887779,0.9999016,3.816073
81.55363,118.6448,0.7338005,0.999737,3.816073
81.60355,105.93,0.7438058,0.999737,3.809614
81.65265,94.35944,0.7513092,0.9999016,3.816073
81.70479,88.7649,0.7513092,0.999737,3.816073
81.75475,104.7856,0.7413048,0.999737,3.809614
81.80275,107.71,0.7287983,1.000066,3.809614
81.85349,99.44539,0.7187929,0.999737,3.809614
81.90327,92.57936,0.7062865,0.9999016,3.809614
81.9545,87.87486,0.6812745,0.999737,3.809614
82.00433,87.62056,0.6737703,0.999737,3.803155
82.05379,87.23911,0.6037347,0.999737,3.809614
82.10315,86.85767,0.5687174,0.999737,3.803155
82.15298,85.33189,0.421143,0.999737,3.803155
82.20462,83.42466,0.2335481,0.9999016,3.803155
82.25419,89.5278,0.1234931,0.9999016,3.803155
82.30378,132.6312,0.06096177,0.999737,3.803155
82.35303,131.2325,0.008434881,0.999737,3.803155
82.40366,108.6001,-0.05409643,0.9999016,3.803155
82.4538,97.66531,-0.1116255,0.999737,3.803155
82.50388,90.29069,-0.2116762,0.999737,3.796696
82.55277,103.2598,-0.2917162,0.999737,3.796696
82.60289,106.6929,-0.399271,0.999737,3.796696
82.65362,109.8716,-0.4918174,0.999737,3.796696
82.70475,93.34225,-0.5543488,0.9999016,3.796696
82.75462,88.00201,-0.5768605,0.9999016,3.796696
82.80367,86.98483,-0.5843639,0.9999016,3.796696
82.8535,86.47623,-0.6118779,0.999737,3.790237
82.90364,84.95044,-0.6443941,0.999737,3.790237
82.9545,84.3147,-0.7019232,0.9999016,3.796696
83.00412,83.55181,-0.9095278,0.9999016,3.796696
83.05325,82.66177,-1.142145,0.999737,3.790237
83.10288,91.18073,-1.297223,0.999737,3.790237
83.1527,128.181,-1.422287,0.999737,3.790237
83.20487,126.6552,-1.449801,0.9999016,3.790237
83.25436,109.6173,-1.504828,0.9999016,3.790237
83.30376,100.9712,-1.572362,0.9999016,3.790237
83.35281,95.63092,-1.577364,0.999737,3.790237
83.4033,107.8372,-1.639897,0.999737,3.783778
83.45425,109.7444,-1.719936,0.9999016,3.783778
83.50389,97.9196,-1.734944,0.999737,3.783778
83.5537,93.08795,-1.782468,0.999737,3.783778
83.60349,88.7649,-1.782468,0.999737,3.783778
83.65303,88.7649,-1.782468,0.9999016,3.783778
83.70476,87.49342,-1.757456,0.9999016,3.783778
83.75381,85.33189,-1.794974,0.9999016,3.783778
83.80354,84.18755,-1.722438,0.9898543,3.777318
83.85361,82.91606,-1.74745,0.9898543,3.777318
83.9034,80.62739,-1.709931,0.9898543,3.777318
83.95387,80.62739,-1.699927,0.9896896,3.777318
84.00454,127.7995,-1.572362,0.9898543,3.777318
84.05382,133.2669,-1.219684,0.9898543,3.777318
84.10274,123.2222,-0.9195331,0.9898543,3.777318
84.15391,101.8612,-0.7694576,0.9898543,3.777318
84.20413,94.61374,-0.6644047,0.9898543,3.777318
84.25401,107.2015,-0.5318379,0.9898543,3.777318
84.30326,110.1259,-0.3942679,0.9898543,3.770859
84.3539,109.2358,-0.2466935,0.9898543,3.770859
84.40332,96.77527,-0.1566482,0.9898543,3.770859
84.45379,90.79928,-0.001570461,0.9898543,3.777318
84.50431,88.7649,0.08347264,0.9896896,3.770859
84.55339,86.60338,0.148506,0.9896896,3.770859
84.6028,85.96764,0.231047,0.9900191,3.770859
84.65273,85.58618,0.3110879,0.9898543,3.770859
84.70412,85.33189,0.3786215,0.9900191,3.770859
84.75468,82.53461,0.3911279,0.9898543,3.770859
84.803,81.00883,0.4086366,0.9898543,3.770859
84.85374,89.40065,0.4461559,0.9896896,3.770859
84.90374,133.0126,0.4986819,0.9898543,3.7644
84.95476,110.5073,0.6237454,0.9898543,3.770859
85.00412,103.1327,0.6887779,0.9898543,3.7644
85.05375,90.92643,0.721294,0.9896896,3.7644
85.10276,87.74771,0.7513092,0.9898543,3.7644
85.15349,102.1155,0.7913296,0.9898543,3.770859
85.2039,108.2186,0.8138414,0.9900191,3.7644
85.25432,96.77527,0.8213447,0.9896896,3.7644
85.30336,90.79928,0.828849,0.9898543,3.7644
85.35374,86.98483,0.8263469,0.9898543,3.7644
85.40394,86.22193,0.7988338,0.9898543,3.7644
85.4549,85.84048,0.7863274,0.9898543,3.7644
85.5048,84.18755,0.7888285,0.9900191,3.7644
85.55312,83.67896,0.7638156,0.9898543,3.757941
85.60327,83.04321,0.7162918,0.9898543,3.757941
85.65373,82.66177,0.6512594,0.9900191,3.757941
85.70487,108.6001,0.5136894,0.9900191,3.757941
85.75401,134.2841,0.4411528,0.9900191,3.757941
85.80378,121.4421,0.4311484,0.9898543,3.757941
85.85378,100.3354,0.3911279,0.9898543,3.757941
85.90372,87.62056,0.3160902,0.9896896,3.757941
85.95476,89.78209,0.1960297,0.9898543,3.751482
86.00472,105.4214,0.1585104,0.9900191,3.751482
86.05373,106.3114,0.1735179,0.9898543,3.751482
86.10298,105.93,0.1535082,0.9898543,3.751482
86.15376,91.05358,0.1259942,0.9896896,3.751482
86.20398,87.11198,0.02344243,0.9898543,3.751482
86.25414,83.93326,-0.1766579,0.9898543,3.757941
86.30325,81.64457,-0.2667042,0.9900191,3.751482
86.35392,83.17036,-0.3367388,0.9896896,3.751482
86.40327,82.66177,-0.4843132,0.9898543,3.751482
86.45428,81.64457,-0.6018725,0.999737,3.745023
86.50451,82.02603,-0.696921,0.9999016,3.751482
86.55287,122.5864,-0.7944696,0.9999016,3.745023
86.6031,137.0814,-0.8369911,0.9999016,3.745023
86.6535,109.6173,-0.8394923,0.9999016,3.745023
86.7041,101.9884,-0.862004,0.999737,3.745023
86.75399,90.79928,-0.942044,0.9999016,3.745023
86.80375,97.53816,-1.029588,0.9999016,3.751482
86.85399,101.7341,-1.124637,0.9999016,3.745023
86.90325,107.0743,-1.204677,0.9999016,3.738563
86.95464,91.81647,-1.327238,0.9999016,3.738563
87.00424,88.38345,-1.354752,0.9999016,3.745023
87.05354,85.20473,-1.40978,0.9999016,3.738563
87.10284,85.33189,-1.459805,0.9999016,3.738563
87.15376,83.42466,-1.499825,0.999737,3.738563
87.20409,82.15317,-1.524838,0.9999016,3.738563
87.25498,81.64457,-1.499825,0.9999016,3.738563
87.30298,80.50024,-1.672413,0.999737,3.732104
87.35373,79.48306,-1.844999,0.999737,3.738563
87.40316,107.0743,-1.942549,0.9999016,3.732104
87.45461,136.8271,-1.915035,0.9999016,3.738563
87.50472,126.9095,-1.779967,0.9999016,3.732104
87.55312,105.2942,-1.602377,0.9999016,3.738563
87.60367,95.37663,-1.087117,0.9999016,3.732104
87.65372,91.43503,-0.7894674,0.9999016,3.732104
87.7045,102.2427,-0.7344394,0.9999016,3.732104
87.75401,105.93,-0.7094274,0.9999016,3.732104
87.80361,96.01237,-0.6619027,0.9999016,3.732104
87.85353,90.29069,-0.6018725,0.9999016,3.732104
87.90354,85.58618,-0.4918174,0.9999016,3.732104
87.95485,82.40748,-0.3417419,0.999737,3.725645
88.00401,81.26313,-0.2191795,0.999737,3.732104
88.05385,81.39028,-0.1491449,0.9999016,3.732104
88.10376,81.77173,-0.004071566,0.9896896,3.732104
88.1533,79.73734,0.04595422,0.9896896,3.725645
88.20472,79.22876,0.09097688,0.9898543,3.725645
88.25452,81.13599,0.1234931,0.9900191,3.725645
88.30351,132.7583,0.1935286,0.9898543,3.725645
88.35326,132.7583,0.2860751,0.9898543,3.725645
88.40347,111.6517,0.4311484,0.9900191,3.725645
88.45485,97.28386,0.5136894,0.9898543,3.719186
88.50515,85.96764,0.5887272,0.9898543,3.719186
88.5535,94.61374,0.6862767,0.9898543,3.719186
88.6041,104.5313,0.7888285,0.9898543,3.719186
88.65312,97.66531,0.8238458,0.9898543,3.719186
88.70448,91.56216,0.8713705,0.9900191,3.719186
88.75478,85.33189,0.9013856,0.9900191,3.719186
88.80314,83.55181,0.9539115,0.9898543,3.719186
88.85383,81.64457,0.9864278,0.9898543,3.719186
88.90325,81.77173,1.011441,0.9898543,3.719186
88.95498,82.02603,0.9914309,0.9898543,3.719186
89.00449,80.88168,0.938904,0.9898543,3.719186
89.05299,80.88168,0.886378,0.9898543,3.712727
89.10322,95.24948,0.8663673,0.9898543,3.712727
89.15308,132.1226,0.8463576,0.9898543,3.712727
89.20422,126.9095,0.8363522,0.9900191,3.712727
89.25438,100.7169,0.8063371,0.9898543,3.712727
89.30388,85.33189,0.8013349,0.9898543,3.706268
89.3531,84.95044,0.7863274,0.9898543,3.712727
89.40297,100.5897,0.7538112,0.9898543,3.706268
89.45398,105.8028,0.6987832,0.9898543,3.712727
89.50426,91.05358,0.5787228,0.9898543,3.712727
89.55347,87.49342,0.503685,0.9900191,3.712727
89.6036,84.69615,0.4736699,0.9898543,3.706268
89.65302,83.42466,0.4086366,0.9898543,3.706268
89.70495,82.02603,0.3486063,0.9898543,3.706268
89.75459,80.88168,0.2385513,0.9898543,3.706268
89.80326,79.61021,0.1234931,0.9898543,3.706268
89.85333,80.50024,-0.06410177,0.9898543,3.706268
89.90332,126.0195,-0.2016708,0.9898543,3.699808
89.95414,134.2841,-0.261701,0.9900191,3.706268
90.00471,118.1362,-0.2792097,0.9898543,3.706268
90.05365,102.6241,-0.3542484,0.9898543,3.699808
90.10413,91.94361,-0.4593013,0.9898543,3.699808
90.15315,91.05358,-0.5268348,0.9898543,3.699808
90.20448,102.6241,-0.5743585,0.9898543,3.699808
90.25473,105.93,-0.5868649,0.9900191,3.693349
90.30327,92.96081,-0.6043736,0.9898543,3.699808
90.35347,88.00201,-0.6443941,0.9898543,3.699808
90.40327,87.36626,-0.6869156,0.9898543,3.699808
90.45473,83.55181,-0.7669556,0.9900191,3.699808
90.50408,82.02603,-0.7919685,0.9898543,3.699808
90.55349,82.78893,-0.8745105,0.9898543,3.693349
90.60372,80.88168,-1.122136,0.9898543,3.693349
90.6539,81.00883,-1.472311,0.9898543,3.693349
90.70437,114.4489,-1.577364,0.9898543,3.693349
90.75433,135.047,-1.589871,0.9898543,3.693349
90.80409,124.2394,-1.54985,0.9898543,3.693349
90.85332,105.2942,-1.542347,0.9898543,3.693349
90.90324,94.2323,-1.539846,0.9898543,3.693349
90.95528,93.08795,-1.58737,0.9898543,3.693349
91.00433,105.1671,-1.564859,0.9898543,3.68689
91.05347,109.2358,-1.56736,0.9900191,3.68689
91.104,97.79247,-1.592372,0.9900191,3.68689
91.15321,91.18073,-1.607379,0.9898543,3.68689
91.20459,88.00201,-1.617385,0.9898543,3.68689
91.25412,87.11198,-1.657405,0.9900191,3.68689
91.30383,87.11198,-1.664909,0.9898543,3.68689
91.35421,85.96764,-1.527339,0.9898543,3.68689
91.40398,85.33189,-1.504828,0.9898543,3.68689
91.45473,82.91606,-1.487319,0.9999016,3.680431
91.50407,93.59654,-1.357253,0.9999016,3.68689
91.55399,135.3013,-1.104626,1.000066,3.680431
91.60324,135.8099,-0.8820138,0.9999016,3.680431
91.65397,110.7616,-0.7094274,0.9999016,3.680431
91.70408,101.6069,-0.6218832,0.9999016,3.680431
91.75457,92.07076,-0.5143283,0.9999016,3.680431
91.80323,102.3698,-0.3767593,0.9999016,3.680431
91.85394,107.5829,-0.2441924,0.9999016,3.680431
91.90395,101.9884,-0.09911908,0.9999016,3.673972
91.95432,94.10515,0.02344243,0.999737,3.680431
92.00449,89.5278,0.09347798,0.9999016,3.680431
92.0535,87.11198,0.1860244,0.9999016,3.680431
92.1031,85.96764,0.2860751,0.9999016,3.673972
92.1541,84.82329,0.3761204,0.9999016,3.673972
92.20485,85.71333,0.4736699,0.9999016,3.673972
92.2541,84.3147,0.501183,0.9999016,3.673972
92.30339,82.53461,0.5311981,0.9999016,3.680431
92.35388,90.54498,0.5862261,0.9999016,3.673972
92.40359,122.5864,0.6737703,0.9999016,3.667513
92.45514,131.8683,0.7438058,1.000066,3.667513
92.50436,113.0503,0.7763221,0.999737,3.673972
92.5535,97.02956,0.7963318,0.9999016,3.667513
92.60348,85.33189,0.828849,0.9999016,3.673972
92.65401,97.66531,0.8363522,0.999737,3.667513
92.70446,105.6757,0.8388534,0.9999016,3.667513
92.7552,108.0915,0.8338512,0.9999016,3.667513
92.80357,91.56216,0.8263469,0.9999016,3.667513
92.85413,87.49342,0.8113394,0.9999016,3.667513
92.90331,85.58618,0.803836,0.9999016,3.667513
92.9552,85.58618,0.7763221,1.000066,3.667513
93.00433,84.18755,0.7738209,0.9999016,3.667513
93.0536,83.17036,0.7312994,0.9999016,3.661053
93.10373,82.53461,0.5712186,0.9999016,3.661053
93.15319,82.40748,0.4136397,0.999737,3.667513
93.20509,109.6173,0.3461052,0.9999016,3.661053
93.25519,131.1054,0.2660653,0.9999016,3.661053
93.30338,122.205,0.231047,0.9999016,3.661053
93.35345,101.2255,0.1660146,0.9999016,3.661053
93.40355,86.34908,0.08597375,0.9999016,3.654594
93.45538,88.63776,0.05345754,0.9999016,3.654594
93.5042,103.387,-0.02408133,0.9999016,3.654594
93.55389,106.5657,-0.1566482,0.999737,3.654594
93.60358,100.3354,-0.2241826,0.9999016,3.654594
93.65362,86.85767,-0.3267344,0.9999016,3.661053
93.70507,84.44184,-0.4492959,0.9999016,3.654594
93.75481,83.29751,-0.4693057,0.999737,3.654594
93.80337,81.64457,-0.5493466,0.9999016,3.654594
93.85457,80.88168,-0.561853,0.999737,3.654594
93.90318,80.50024,-0.7069254,0.9999016,3.654594
93.95473,80.37309,-0.9320396,0.999737,3.654594
94.00431,86.85767,-1.242196,0.9999016,3.654594
94.05398,131.2325,-1.434793,0.9999016,3.648135
94.10423,130.9782,-1.449801,0.999737,3.648135
94.15394,106.3114,-1.452302,0.999737,3.648135
94.20535,97.66531,-1.519835,0.9999016,3.641676
94.25457,91.43503,-1.539846,0.9999016,3.648135
94.3037,104.0227,-1.537345,0.999737,3.641676
94.35419,105.5485,-1.539846,0.999737,3.648135
94.40347,107.8372,-1.592372,0.9999016,3.648135
94.45428,94.35944,-1.614884,0.9999016,3.648135
94.505,88.7649,-1.577364,0.9999016,3.648135
94.55334,86.09478,-1.352251,0.9999016,3.648135
94.60381,83.93326,-1.082115,0.9999016,3.641676
94.65419,83.04321,-0.9820644,0.9999016,3.648135
94.70499,82.40748,-0.8494976,0.999737,3.641676
94.7552,81.77173,-0.8595029,0.9999016,3.641676
94.8037,79.10161,-0.8394923,0.9999016,3.641676
94.85384,81.26313,-0.7619534,0.9999016,3.648135
94.90357,122.205,-0.6644047,0.999737,3.635217
94.95493,124.2394,-0.5218326,0.999737,3.641676
95.00447,105.0399,-0.3342377,0.9999016,3.641676
95.05419,95.88522,-0.1866633,0.999737,3.641676
95.10424,92.19792,-0.04409109,0.999737,3.641676
95.15422,101.8612,0.04345219,0.999737,3.641676
95.20519,105.2942,0.120992,0.9999016,3.635217
95.25523,106.5657,0.2060342,1.000066,3.635217
95.3042,92.19792,0.3160902,0.999737,3.635217
95.35334,87.62056,0.4311484,0.999737,3.641676
95.40421,84.69615,0.5387023,0.9999016,3.635217
95.45506,82.78893,0.663765,0.9999016,3.635217
95.50468,83.29751,0.721294,0.9999016,3.635217
95.55367,82.91606,0.7237961,0.999737,3.635217
95.60344,82.15317,0.7037854,0.999737,3.635217
95.65322,84.0604,0.6612638,0.9999016,3.635217
95.70505,100.9712,0.6162412,0.9999016,3.635217
95.75526,135.3013,0.5712186,0.9999016,3.635217
95.80418,119.4077,0.5712186,0.9999016,3.628757
95.85419,99.06393,0.5261959,0.999737,3.628757
95.90369,85.33189,0.4111377,0.9999016,3.628757
95.95444,91.05358,0.3235935,0.9999016,3.628757
96.0052,102.2427,0.2785708,0.999737,3.628757
96.05436,106.5657,0.2235437,0.9999016,3.628757
96.10447,104.1499,0.1660146,0.9999016,3.628757
96.1542,87.87486,0.1034833,0.9999016,3.628757
96.20509,84.82329,0.07596932,0.999737,3.628757
96.25512,83.29751,0.01093599,0.9999016,3.628757
96.30412,81.13599,-0.05909956,0.999737,3.628757
96.35342,80.88168,-0.2842128,0.9999016,3.622298
96.40369,80.24594,-0.5293359,0.9999016,3.628757
96.45471,86.85767,-0.6043736,0.9900191,3.622298
96.50518,133.1398,-0.614379,0.9896896,3.622298
96.55396,133.5212,-0.641893,0.9898543,3.622298
96.60367,112.6688,-0.6669059,0.9898543,3.622298
96.65446,98.30104,-0.724435,0.9898543,3.622298
96.70448,86.47623,-0.8269867,0.9898543,3.622298
96.75481,94.48659,-0.9070267,0.9898543,3.622298
96.80357,102.497,-0.9670569,0.9898543,3.622298
96.85369,105.5485,-1.014581,0.9898543,3.622298
96.9033,89.90925,-1.032089,0.9898543,3.622298
96.95541,85.58618,-1.067108,0.9898543,3.615839
97.00518,84.44184,-1.179664,0.9898543,3.615839
97.05408,82.40748,-1.17216,0.9898543,3.615839
97.10384,82.02603,-1.322236,0.9999016,3.615839
97.15437,79.99165,-1.412281,0.999737,3.622298
97.20479,97.53816,-1.437294,0.9999016,3.615839
97.25486,133.3941,-1.387268,1.000066,3.615839
97.30373,130.724,-1.292221,0.9999016,3.615839
97.35397,104.9128,-1.229689,0.999737,3.615839
97.40408,92.96081,-1.194671,0.999737,3.615839
97.45441,89.0192,-1.182166,0.9999016,3.615839
97.50445,99.95398,-1.154652,0.9999016,3.60938
97.5536,106.6929,-1.087117,0.9999016,3.615839
97.60342,107.4557,-1.057102,0.9999016,3.615839
97.65421,90.54498,-1.002074,0.9999016,3.60938
97.70535,87.49342,-0.9670569,0.9999016,3.615839
97.75454,84.69615,-0.8820138,0.999737,3.60938
97.80381,83.67896,-0.91453,0.9999016,3.615839
97.8543,82.40748,-0.9370418,0.9999016,3.60938
97.90405,85.45904,-1.014581,0.999737,3.615839
97.95454,125.5108,-1.019584,0.9999016,3.60938
98.0046,133.7755,-1.002074,0.9999016,3.615839
98.05446,109.8716,-0.942044,0.9999016,3.615839
98.10386,102.497,-0.889518,0.9999016,3.615839
98.15418,86.60338,-0.8695074,0.999737,3.60938
98.20543,97.53816,-0.8394923,0.999737,3.615839
98.25481,105.4214,-0.8269867,0.9999016,3.60938
98.30379,107.9643,-0.8219836,0.999737,3.615839
98.35421,92.57936,-0.8319889,0.999737,3.60938
98.40365,89.0192,-0.8294879,0.9999016,3.615839
98.45497,85.45904,-0.8519987,0.9999016,3.60938
98.50528,84.0604,-0.8820138,0.9999016,3.60938
98.55383,85.07759,-0.9870667,0.999737,3.615839
98.6044,111.0159,-1.084616,0.999737,3.60938
98.6537,135.3013,-1.099624,0.9999016,3.615839
98.7052,125.2566,-1.104626,0.999737,3.615839
98.75442,106.3114,-1.114631,0.999737,3.615839
98.80457,91.68932,-1.117132,0.9999016,3.615839
98.85416,91.81647,-1.057102,0.9999016,3.615839
98.90369,104.4042,-0.9295375,0.9999016,3.615839
98.95545,107.9643,-0.7969707,0.999737,3.615839
99.00465,94.61374,-0.7094274,0.999737,3.615839
99.05344,90.29069,-0.6794123,0.9999016,3.622298
99.10421,88.38345,-0.5968703,0.9898543,3.615839
99.1534,85.20473,-0.5443434,0.9898543,3.615839
99.20498,84.0604,-0.5018228,0.9898543,3.615839
99.25544,91.68932,-0.4092755,0.9898543,3.622298
99.30457,129.8339,-0.2591999,0.9898543,3.622298
99.35429,122.4593,-0.07410712,0.9898543,3.622298
99.40391,106.4386,0.04845533,0.9898543,3.622298
99.45524,92.83366,0.1284953,0.9898543,3.628757
99.50491,85.45904,0.2110373,0.9900191,3.622298
99.55443,102.7513,0.3235935,0.9896896,3.628757
99.60418,105.0399,0.4411528,0.9898543,3.628757
99.6539,106.6929,0.528697,0.9900191,3.628757
99.70478,90.29069,0.663765,0.9898543,3.628757
99.75491,86.98483,0.7112896,0.9898543,3.628757
99.80443,85.20473,0.7388036,0.9898543,3.628757
99.85394,83.17036,0.7538112,0.9898543,3.628757
99.90382,82.40748,0.7613145,0.9898543,3.635217
99.95542,100.3354,0.7738209,0.9896896,3.635217
100.0055,131.9954,0.8113394,0.9898543,3.635217
100.0545,116.9919,0.8213447,0.9898543,3.635217
100.1034,105.93,0.8213447,0.9898543,3.635217
100.1542,94.99519,0.8213447,0.9896896,3.641676
100.2049,89.14634,0.8188436,0.9896896,3.635217
100.2552,103.387,0.8113394,0.9898543,3.641676
100.3044,105.5485,0.8013349,0.9898543,3.641676
100.3544,105.5485,0.7913296,0.9898543,3.641676
100.4041,88.38345,0.7788231,0.9896896,3.641676
100.4545,87.11198,0.7638156,0.9898543,3.641676
100.5047,82.91606,0.7388036,0.9898543,3.648135
100.5534,83.29751,0.668768,0.9898543,3.648135
100.6041,82.28033,0.4711679,0.9896896,3.648135
100.6546,101.6069,0.393629,0.9896896,3.648135
100.7048,132.7583,0.3360999,0.9896896,3.654594
100.7545,108.8544,0.313589,0.9896896,3.654594
100.8037,96.01237,0.2485557,0.9898543,3.654594
100.8543,84.82329,0.1885255,0.9898543,3.654594
100.9044,96.39381,0.1385006,0.9898543,3.661053
100.9557,104.7856,0.07096619,0.9896896,3.654594
101.0048,106.4386,-0.004071566,0.9898543,3.661053
101.0547,92.83366,-0.1416406,0.9896896,3.654594
101.1042,91.05358,-0.2141773,0.9898543,3.661053
101.1543,85.96764,-0.316729,0.9898543,3.661053
101.2055,84.95044,-0.4267841,0.9898543,3.661053
101.2556,83.29751,-0.5493466,0.9898543,3.661053
101.3039,82.53461,-0.641893,0.9896896,3.661053
101.3537,88.25631,-0.779462,0.9898543,3.661053
101.4042,110.6345,-0.8394923,0.9896896,3.661053
101.4549,133.1398,-0.8970214,0.9896896,3.667513
101.5053,113.0503,-0.9220343,0.9898543,3.661053
101.5547,101.4798,-0.9720591,0.9898543,3.667513
101.6039,89.90925,-1.007077,0.9896896,3.667513
101.6543,99.19109,-1.102125,0.9900191,3.667513
101.7049,107.5829,-1.199674,0.9896896,3.667513
101.7546,107.9643,-1.337243,0.9898543,3.661053
101.8047,104.1499,-1.449801,0.9898543,3.667513
101.8537,88.63776,-1.499825,0.9896896,3.673972
101.9036,85.58618,-1.517334,0.9898543,3.673972
101.9546,85.20473,-1.602377,0.9896896,3.673972
102.0051,82.53461,-1.597375,0.9898543,3.673972
102.0546,81.77173,-1.754954,0.9898543,3.673972
102.1035,81.39028,-1.799976,0.9898543,3.667513
102.1541,96.39381,-1.74745,0.9898543,3.673972
102.2045,134.6656,-1.447299,0.9898543,3.673972
102.2556,119.2806,-0.997072,0.9898543,3.673972
102.3046,105.6757,-0.8194825,0.9898543,3.661053
102.354,94.99519,-0.7269361,0.9896896,3.648135
102.4044,89.5278,-0.6518983,0.9898543,3.667513
102.4548,104.9128,-0.5518476,0.9898543,3.673972
102.5055,106.4386,-0.4067743,0.9896896,3.673972
102.5547,94.99519,-0.2466935,0.9896896,3.667513
102.6041,89.90925,-0.1391395,0.9898543,3.667513
102.6542,85.20473,0.01343709,0.9898543,3.673972
102.7051,84.44184,0.1059844,0.9898543,3.673972
102.755,82.53461,0.2035331,0.9898543,3.673972
102.8039,82.02603,0.2860751,0.9896896,3.680431
102.8542,81.51743,0.3636139,0.9896896,3.68689
102.9042,80.50024,0.3961301,0.9898543,3.680431
102.9554,80.50024,0.4386517,0.9898543,3.680431
103.0054,130.724,0.4911786,0.9896896,3.680431
103.0546,133.5212,0.5987325,0.9900191,3.680431
103.1039,126.6552,0.7287983,0.9898543,3.673972
103.1542,103.0055,0.7638156,0.9898543,3.673972
103.2055,84.0604,0.7913296,0.9896896,3.661053
103.2548,95.12233,0.8213447,0.9898543,3.654594
103.3046,104.6585,0.8438565,0.9898543,3.667513
103.3536,105.6757,0.9063878,0.9896896,3.673972
103.4047,90.29069,0.9764233,0.9898543,3.667513
103.4549,86.60338,0.9764233,0.9900191,3.673972
103.5048,84.18755,0.9839267,0.9898543,3.673972
103.5542,84.0604,0.9639169,0.9896896,3.680431
103.6044,83.29751,0.9489093,0.9896896,3.680431
103.6543,82.02603,0.8813749,0.9896896,3.680431
103.7054,80.88168,0.8263469,0.9898543,3.680431
103.755,94.86804,0.7963318,0.9898543,3.673972
103.8047,130.724,0.7813243,0.9896896,3.673972
103.8542,128.0538,0.7763221,0.9898543,3.667513
103.9045,102.7513,0.7538112,0.9898543,3.654594
103.9551,88.25631,0.7137907,0.9898543,3.661053
104.0057,81.77173,0.5937303,0.9896896,3.667513
104.0547,100.2083,0.4861754,0.9898543,3.673972
104.1044,102.6241,0.448657,0.9896896,3.667513
104.1544,104.1499,0.393629,0.9898543,3.673972
104.2052,87.74771,0.3461052,0.9896896,3.673972
104.2548,83.29751,0.2685664,0.9898543,3.673972
104.3038,83.42466,0.2135384,0.9896896,3.673972
104.3543,80.62739,0.1435028,0.9898543,3.667513
104.4042,79.48306,0.07596932,0.9898543,3.667513
104.4554,79.73734,-0.1666535,0.9798071,3.667513
104.5054,78.72016,-0.4117766,0.9798071,3.673972
104.5538,91.43503,-0.5418423,0.9798071,3.667513
104.6041,135.047,-0.561853,0.9798071,3.667513
104.6539,113.686,-0.5643541,0.9798071,3.667513
104.7046,101.4798,-0.5643541,0.9798071,3.667513
104.7547,90.03638,-0.5843639,0.9798071,3.667513
104.8039,90.79928,-0.6193812,0.9798071,3.667513
104.8547,101.7341,-0.6719081,0.9798071,3.667513
104.9042,106.4386,-0.7569512,0.9798071,3.661053
104.9551,106.82,-0.8595029,0.9798071,3.667513
105.0054,89.40065,-0.9320396,0.9798071,3.667513
105.0536,84.44184,-0.9745612,0.9798071,3.667513
105.1044,84.0604,-1.054601,0.9798071,3.667513
105.1545,83.55181,-1.144646,0.9796425,3.667513
105.2047,81.77173,-1.207178,0.9798071,3.667513
105.2551,79.73734,-1.592372,0.9799718,3.667513
105.3046,79.3559,-1.777466,0.9799718,3.667513
105.3546,99.82683,-1.837496,0.9798071,3.661053
105.4044,135.937,-1.839997,0.9798071,3.667513
105.4547,117.119,-1.809982,0.9799718,3.667513
105.5039,106.4386,-1.782468,0.9799718,3.667513
105.5546,97.28386,-1.812483,0.9798071,3.667513
105.6055,90.92643,-1.787471,0.9796425,3.667513
105.6541,104.7856,-1.712433,0.9798071,3.661053
105.7042,106.82,-1.529841,0.9796425,3.661053
105.7549,94.35944,-1.334742,0.9798071,3.661053
105.8041,91.94361,-1.089618,0.9796425,3.661053
105.8547,87.36626,-0.9070267,0.9798071,3.661053
105.9049,84.82329,-0.7644545,0.9798071,3.661053
105.9545,84.3147,-0.6869156,0.9799718,3.661053
106.0047,83.04321,-0.6043736,0.9798071,3.661053
106.0542,83.17036,-0.5668552,0.9798071,3.661053
106.1054,81.00883,-0.5368401,0.9798071,3.661053
106.1539,82.40748,-0.4843132,0.9798071,3.661053
106.2044,118.0091,-0.3492453,0.9798071,3.661053
106.2547,131.2325,-0.2041719,0.9798071,3.661053
106.3046,111.1431,-0.03908888,0.9796425,3.661053
106.3558,98.42819,0.05345754,0.9798071,3.661053
106.4048,89.14634,0.1009813,0.9798071,3.661053
106.4548,96.90242,0.1910266,0.9799718,3.654594
106.5042,105.2942,0.2660653,0.9798071,3.661053
106.5546,106.0571,0.3811226,0.9798071,3.654594
106.6056,89.90925,0.4611635,0.9799718,3.654594
106.6539,86.73053,0.5311981,0.9798071,3.654594
106.7037,84.44184,0.6312487,0.9798071,3.654594
106.7543,83.29751,0.7112896,0.9798071,3.654594
106.804,83.80611,0.748808,0.9796425,3.654594
106.8555,82.78893,0.7738209,0.9798071,3.654594
106.9049,81.00883,0.7663167,0.9799718,3.654594
106.9547,78.21156,0.7738209,0.9796425,3.654594
107.0041,86.47623,0.7763221,0.9798071,3.654594
107.0549,119.2806,0.7938307,0.9798071,3.648135
107.1056,132.7583,0.828849,0.9799718,3.654594
107.1539,102.2427,0.8388534,0.9798071,3.648135
107.2047,90.41783,0.8488587,0.9798071,3.648135
107.2544,80.88168,0.8488587,0.9798071,3.648135
107.3043,95.37663,0.8413545,0.9798071,3.648135
107.3552,102.6241,0.828849,0.9798071,3.654594
107.4049,104.5313,0.8238458,0.9798071,3.648135
107.4544,89.5278,0.8213447,0.9798071,3.648135
107.504,84.18755,0.8138414,0.9798071,3.648135
107.554,82.02603,0.8138414,0.9799718,3.648135
107.6055,80.75454,0.803836,0.9798071,3.648135
107.6546,79.73734,0.7888285,0.9798071,3.648135
107.7044,80.24594,0.6912789,0.9798071,3.648135
107.7547,78.97446,0.4811732,0.9798071,3.648135
107.8049,79.73734,0.3836237,0.9898543,3.648135
107.8548,125.1294,0.2985815,0.9898543,3.648135
107.9048,133.1398,0.258561,0.9898543,3.648135
107.9548,101.8612,0.1960297,0.9896896,3.648135
108.0047,89.5278,0.1435028,0.9896896,3.641676
108.0544,82.40748,0.04845533,0.9898543,3.641676
108.1058,94.48659,-0.1141266,0.9898543,3.641676
108.1545,103.387,-0.2041719,0.9896896,3.641676
108.2039,104.1499,-0.3517464,0.9896896,3.641676
108.2541,88.89205,-0.4392906,0.9900191,3.641676
108.3044,84.0604,-0.5168303,0.9898543,3.641676
108.3558,81.77173,-0.5468454,0.9898543,3.641676
108.4048,81.26313,-0.5693563,0.9898543,3.641676
108.454,80.11879,-0.5868649,0.9896896,3.641676
108.5047,79.86449,-0.7344394,0.9898543,3.641676
108.5541,78.08442,-0.9245353,0.9896896,3.641676
108.605,79.61021,-1.039594,0.9898543,3.641676
108.6544,135.3013,-1.117132,0.9898543,3.641676
108.705,132.7583,-1.13214,0.9898543,3.641676
108.7545,104.9128,-1.129639,0.9896896,3.641676
108.8049,95.75809,-1.142145,0.9896896,3.641676
108.8552,87.11198,-1.167158,0.9900191,3.641676
108.9049,101.8612,-1.214682,0.9898543,3.635217
108.955,104.0227,-1.244697,0.9896896,3.635217
109.005,95.75809,-1.284718,0.9898543,3.641676
109.0541,89.5278,-1.314733,0.9898543,3.641676
109.106,86.34908,-1.339745,0.9896896,3.641676
109.1549,84.3147,-1.304727,0.9896896,3.641676
109.205,83.67896,-1.382266,0.9896896,3.635217
109.254,82.40748,-1.302226,0.9896896,3.635217
109.3045,81.39028,-1.579866,0.9896896,3.635217
109.3551,78.72016,-1.819987,0.9898543,3.641676
109.404,108.6001,-1.995076,0.9896896,3.635217
109.4546,134.7927,-1.997577,0.9898543,3.635217
109.5042,131.9954,-1.96506,0.9898543,3.635217
109.5546,104.277,-1.932543,0.9896896,3.641676
109.6055,97.28386,-1.917536,0.9898543,3.635217
109.6539,88.00201,-1.915035,0.9898543,3.635217
109.704,99.95398,-1.907531,0.9896896,3.635217
109.7549,106.0571,-1.90503,0.9896896,3.641676
109.8048,98.42819,-1.902528,0.9896896,3.641676
109.8554,90.29069,-1.900027,0.9900191,3.641676
109.9047,86.73053,-1.902528,0.9898543,3.641676
109.954,83.80611,-1.870012,0.9896896,3.641676
110.0048,81.89888,-1.832494,0.9898543,3.641676
110.0548,81.64457,-1.669912,0.9900191,3.648135
110.1049,81.64457,-1.607379,0.9898543,3.641676
110.1548,80.88168,-1.577364,0.9896896,3.641676
110.204,82.40748,-1.56736,0.9896896,3.641676
110.2549,100.5897,-1.459805,0.9898543,3.641676
110.3044,130.5968,-1.232191,0.9898543,3.641676
110.3553,105.1671,-1.084616,0.9898543,3.648135
110.4041,96.90242,-1.022085,0.9898543,3.648135
110.4544,86.98483,-0.91453,0.9900191,3.648135
110.5046,94.10515,-0.8294879,0.9896896,3.641676
110.554,102.497,-0.7494469,0.9896896,3.641676
110.6056,104.4042,-0.6594017,0.9898543,3.641676
110.6539,91.43503,-0.5368401,0.9898543,3.641676
110.704,86.34908,-0.4167797,0.9898543,3.641676
110.7542,84.0604,-0.2942173,0.9896896,3.648135
110.8047,82.78893,-0.2016708,0.9896896,3.641676
110.8551,81.51743,-0.1091244,0.9900191,3.648135
110.9044,80.50024,0.003432672,0.9898543,3.648135
110.9549,80.88168,0.02594354,0.9898543,3.648135
111.0045,80.11879,0.05845974,0.9898543,3.648135
111.0546,92.96081,0.1109866,0.9898543,3.641676
111.1056,116.1019,0.1985308,0.9898543,3.648135
111.155,117.7548,0.341103,0.9898543,3.648135
111.2051,102.6241,0.4461559,0.9898543,3.648135
111.2544,87.11198,0.501183,0.9898543,3.648135
111.3044,82.02603,0.5462056,0.9898543,3.648135
111.3554,98.6825,0.6512594,0.9900191,3.648135
111.4043,103.0055,0.7287983,0.9896896,3.648135
111.4544,93.72369,0.7738209,0.9900191,3.648135
111.504,86.73053,0.7988338,0.9898543,3.648135
111.554,83.67896,0.8238458,0.9898543,3.648135
111.6052,82.53461,0.8438565,0.9898543,3.648135
111.6541,82.40748,0.8463576,0.9898543,3.648135
111.705,82.15317,0.8338512,0.9898543,3.648135
111.7546,80.11879,0.7988338,0.9896896,3.648135
111.8043,80.62739,0.7813243,0.9896896,3.648135
111.8552,112.5417,0.7663167,0.9898543,3.654594
111.9045,130.0882,0.7638156,0.9898543,3.648135
111.9546,108.4729,0.7563123,0.9898543,3.654594
112.004,94.10515,0.746307,0.9896896,3.648135
112.0541,80.11879,0.7363016,0.9898543,3.654594
112.106,79.10161,0.7187929,0.9898543,3.654594
112.1545,97.53816,0.6962821,0.9898543,3.654594
112.205,102.6241,0.6562616,0.9898543,3.654594
112.2542,90.16354,0.5787228,0.9898543,3.648135
112.3044,83.67896,0.4986819,0.9898543,3.654594
112.3556,82.40748,0.4386517,0.9900191,3.654594
112.4045,80.75454,0.3961301,0.9896896,3.648135
112.4541,79.22876,0.3285966,0.9898543,3.635217
112.5042,77.83012,0.1835233,0.9898543,3.628757
112.5543,78.97446,0.05345754,0.9900191,3.641676
112.6051,125.5108,-0.1016202,0.9898543,3.641676
112.6541,133.7755,-0.1641524,0.9898543,3.648135
112.7048,121.1878,-0.1841622,0.9898543,3.648135
112.7543,100.5897,-0.231686,0.9898543,3.648135
112.8047,89.40065,-0.2742075,0.9896896,3.648135
112.8561,85.84048,-0.3467441,0.9898543,3.648135
112.9046,102.2427,-0.4292862,0.9898543,3.648135
112.9543,104.7856,-0.4668046,0.9896896,3.648135
113.005,93.72369,-0.5293359,0.9898543,3.648135
113.0545,87.11198,-0.5643541,0.9900191,3.648135
113.1061,85.20473,-0.5668552,0.9900191,3.654594
113.1542,82.02603,-0.5943692,0.9898543,3.648135
113.2048,80.37309,-0.5943692,0.9898543,3.648135
113.2551,80.37309,-0.6944199,0.9898543,3.648135
113.3041,80.50024,-0.8695074,0.9898543,3.641676
113.3557,90.54498,-0.9995731,0.9898543,3.648135
113.4051,114.1946,-1.054601,0.9898543,3.641676
113.4547,127.5452,-1.042095,0.9900191,3.622298
113.505,106.82,-1.039594,0.9898543,3.628757
113.5547,97.15671,-1.059603,0.9898543,3.635217
113.6055,90.54498,-1.099624,0.9898543,3.641676
113.6547,99.06393,-1.127138,0.9898543,3.641676
113.7045,106.6929,-1.157153,0.9898543,3.641676
113.7542,105.1671,-1.174662,0.9896896,3.641676
113.805,92.19792,-1.219684,0.9900191,3.641676
113.856,87.62056,-1.249699,0.9898543,3.641676
113.9041,86.60338,-1.219684,0.9898543,3.641676
113.9545,84.3147,-1.184667,0.9898543,3.641676
114.0046,83.17036,-1.009578,0.9900191,3.641676
114.0541,82.78893,-0.9470471,0.9898543,3.641676
114.1051,81.64457,-0.9370418,0.9900191,3.641676
114.1546,81.00883,-0.9245353,0.9898543,3.641676
114.2045,119.9163,-0.889518,0.9898543,3.641676
114.2551,136.9542,-0.7694576,0.9900191,3.641676
114.3051,116.8647,-0.6468952,0.9898543,3.641676
114.3558,104.4042,-0.559351,0.9898543,3.641676
114.4043,94.48659,-0.4918174,0.9898543,3.635217
114.4543,94.10515,-0.3892657,0.9898543,3.628757
114.5041,104.7856,-0.261701,0.9898543,3.615839
114.5548,107.71,-0.1716557,0.9900191,3.628757
114.6051,97.02956,-0.09661798,0.9898543,3.635217
114.6544,92.07076,0.03344778,0.9898543,3.628757
114.7049,86.60338,0.120992,0.9898543,3.635217
114.7543,85.58618,0.2110373,0.9900191,3.635217
114.8041,84.82329,0.2935784,0.9900191,3.635217
114.8559,83.17036,0.3861257,0.9900191,3.628757
114.9051,82.40748,0.4136397,0.9898543,3.635217
114.9544,81.26313,0.4261452,0.9898543,3.628757
115.0049,89.90925,0.448657,0.9898543,3.635217
115.055,134.0298,0.4936797,0.9900191,3.635217
115.1061,130.9782,0.5912292,0.9898543,3.635217
115.1543,107.0743,0.721294,0.9896896,3.635217
115.2045,96.13953,0.7663167,0.9898543,3.635217
115.2552,86.85767,0.8063371,0.9898543,3.628757
115.3052,101.4798,0.83135,0.9900191,3.635217
115.3561,107.2015,0.8463576,0.9898543,3.628757
115.4041,106.0571,0.8488587,0.9900191,3.628757
115.4549,91.05358,0.8463576,0.9898543,3.622298
115.5042,86.73053,0.8388534,0.9898543,3.60938
115.5546,86.09478,0.8413545,0.9900191,3.602921
115.6057,84.569,0.83135,0.9898543,3.615839
115.6551,83.29751,0.8238458,0.9900191,3.622298
115.7045,82.02603,0.7863274,0.9898543,3.622298
115.7549,81.00883,0.746307,0.9898543,3.615839
115.8046,83.04321,0.7012843,0.9898543,3.622298
115.8556,127.4181,0.6462563,0.9898543,3.622298
115.9044,131.1054,0.6162412,0.9898543,3.622298
115.9553,102.7513,0.5637152,0.9898543,3.622298
116.0048,91.43503,0.4886775,0.9898543,3.622298
116.0549,85.58618,0.4411528,0.9900191,3.622298
116.1062,94.99519,0.3811226,0.9898543,3.622298
116.155,104.6585,0.3335988,0.9898543,3.622298
116.205,105.4214,0.2635632,0.9898543,3.622298
116.2552,90.41783,0.1985308,0.9900191,3.622298
116.3047,85.20473,0.1610115,0.9900191,3.622298
116.3553,81.89888,0.1334984,0.9900191,3.615839
116.4051,81.00883,0.09347798,0.9900191,3.615839
116.4546,80.88168,-0.06410177,0.9898543,3.615839
116.5051,80.75454,-0.2141773,0.9898543,3.602921
116.5551,80.75454,-0.4342884,0.9898543,3.596462
116.6054,79.3559,-0.5843639,0.9898543,3.602921
116.6552,86.22193,-0.6243843,0.9898543,3.60938
116.7048,129.9611,-0.6594017,0.9900191,3.60938
116.7549,117.5005,-0.6594017,0.9898543,3.60938
116.8042,103.0055,-0.669407,0.9898543,3.60938
116.8561,92.19792,-0.7119285,0.9898543,3.60938
116.9043,91.05358,-0.8194825,0.9898543,3.602921
116.9552,103.0055,-0.8770116,0.9896896,3.60938
117.0047,106.4386,-0.9120289,0.9898543,3.60938
117.0546,97.28386,-0.969558,0.9900191,3.615839
117.1061,92.57936,-1.017082,0.9900191,3.60938
117.1546,88.38345,-1.047097,0.9900191,3.615839
117.2049,84.44184,-1.067108,0.9898543,3.60938
117.2545,82.91606,-1.077112,0.9900191,3.60938
117.3046,82.40748,-1.189669,0.9898543,3.60938
117.3561,81.51743,-1.194671,0.9898543,3.602921
117.405,80.50024,-1.467309,0.9898543,3.602921
117.4551,76.55863,-1.712433,0.9900191,3.590003
117.5046,77.83012,-1.80498,0.9900191,3.590003
117.5548,118.6448,-1.819987,0.9898543,3.596462
117.6063,127.6724,-1.792473,0.9898543,3.602921
117.6548,106.3114,-1.772463,0.9900191,3.602921
117.7049,99.06393,-1.759957,0.9898543,3.596462
117.7547,91.43503,-1.772463,0.9900191,3.602921
117.8046,99.06393,-1.769961,0.9900191,3.596462
117.8559,105.4214,-1.764959,0.9898543,3.596462
117.9047,106.3114,-1.797475,0.9898543,3.596462
117.9551,92.45221,-1.844999,0.9900191,3.602921
118.0051,86.73053,-1.844999,0.9898543,3.596462
118.0543,85.20473,-1.802479,0.9900191,3.602921
118.1063,83.42466,-1.697425,0.9898543,3.602921
118.1546,81.77173,-1.727441,0.9898543,3.596462
118.2048,81.00883,-1.679916,0.9898543,3.596462
118.2544,80.88168,-1.842498,0.9900191,3.596462
118.3042,77.70296,-1.952554,0.9900191,3.596462
118.3564,84.3147,-2.027592,0.9898543,3.590003
118.4043,119.2806,-2.037597,0.9898543,3.577085
118.4553,125.8923,-1.995076,0.9898543,3.577085
118.5045,108.9815,-1.962558,0.9898543,3.583544
118.5551,99.95398,-1.882519,0.9900191,3.583544
118.6053,88.38345,-1.82749,0.9898543,3.590003
118.6551,96.01237,-1.744949,0.9900191,3.583544
118.7048,102.2427,-1.697425,0.9898543,3.590003
118.7547,104.7856,-1.6474,0.9898543,3.583544
118.8053,90.29069,-1.632392,0.9898543,3.583544
118.8553,86.34908,-1.497324,0.9900191,3.583544
118.9043,83.29751,-1.28972,0.9898543,3.583544
118.9547,81.64457,-1.167158,0.9900191,3.590003
119.0051,80.37309,-1.177163,0.9896896,3.590003
119.0543,80.75454,-1.127138,0.9898543,3.590003
119.1063,80.62739,-1.279714,0.9898543,3.583544
119.1548,78.84731,-1.54985,0.9898543,3.583544
119.2047,80.88168,-1.68742,0.9898543,3.577085
119.2546,113.0503,-1.712433,0.9900191,3.577085
119.3046,131.1054,-1.702428,0.9898543,3.570625
119.3553,105.4214,-1.659906,0.9900191,3.564166
119.4054,94.86804,-1.602377,0.9898543,3.570625
119.4548,85.96764,-1.574863,0.9898543,3.570625
119.5049,93.85085,-1.432292,0.9898543,3.577085
119.5545,101.9884,-1.34975,0.9898543,3.577085
119.6058,104.0227,-1.327238,0.9898543,3.570625
119.6543,88.63776,-1.309729,0.9898543,3.577085
119.7051,85.33189,-1.317234,0.9898543,3.570625
119.755,82.78893,-1.294722,0.9898543,3.570625
119.8045,82.15317,-1.294722,0.9898543,3.570625
119.8555,81.39028,-1.224686,0.9898543,3.570625
119.9049,79.99165,-1.26971,0.9900191,3.570625
119.9553,78.72016,-1.309729,0.9898543,3.570625
120.0052,77.83012,-1.407279,0.9898543,3.570625
120.0544,99.82683,-1.492322,0.9900191,3.570625
120.1053,131.614,-1.414782,0.9898543,3.570625
120.1554,117.6276,-1.287219,0.9898543,3.570625
120.2048,93.85085,-1.229689,0.9898543,3.570625
120.2544,82.40748,-1.19217,0.9900191,3.570625
120.3046,86.85767,-1.187168,0.9900191,3.570625
120.3555,98.1739,-1.182166,0.9898543,3.564166
120.4053,101.6069,-1.164656,0.9898543,3.564166
120.4554,89.14634,-1.17216,0.9898543,3.564166
120.5053,85.07759,-1.142145,0.9900191,3.564166
120.5555,82.15317,-1.169659,0.9900191,3.564166
120.6062,80.62739,-1.157153,0.9898543,3.564166
120.6553,80.50024,-1.239694,0.9898543,3.570625
120.7054,78.08442,-1.38977,0.9898543,3.570625
120.7552,89.14634,-1.62739,0.9898543,3.570625
120.805,126.6552,-1.654904,0.9999016,3.570625
120.8563,125.2566,-1.604878,0.9999016,3.564166
120.9053,105.6757,-1.477315,0.9999016,3.564166
120.9555,90.03638,-1.147148,0.9999016,3.557707
121.0047,78.46587,-0.9620547,0.9999016,3.544789
121.0545,88.89205,-0.8419943,1.000066,3.538329
121.1059,98.1739,-0.7344394,0.999737,3.544789
121.155,99.82683,-0.6193812,0.9999016,3.557707
121.2053,87.23911,-0.4943186,0.9999016,3.557707
121.2551,82.66177,-0.3767593,0.9999016,3.557707
121.3053,79.3559,-0.2992204,0.9999016,3.557707
121.3558,77.06723,-0.2366891,0.9999016,3.557707
121.4049,77.19438,-0.1966686,0.9999016,3.564166
121.4554,80.11879,-0.1066233,0.9999016,3.564166
121.5053,124.1122,0.04345219,0.9999016,3.557707
121.5545,109.8716,0.148506,0.9999016,3.551248
121.6059,95.50377,0.2335481,0.9999016,3.551248
121.6551,79.10161,0.2985815,0.9999016,3.551248
121.7055,79.99165,0.3761204,0.9999016,3.538329
121.755,93.08795,0.4536592,1.000066,3.538329
121.8053,98.9368,0.528697,0.999737,3.538329
121.8561,91.81647,0.6262465,0.9999016,3.544789
121.9053,84.3147,0.6762714,0.9999016,3.551248
121.9547,80.50024,0.746307,0.9999016,3.551248
122.0047,79.48306,0.7663167,0.9999016,3.544789
122.0554,77.32152,0.7738209,1.000066,3.544789
122.1058,77.32152,0.7813243,0.9999016,3.544789
122.1549,92.32506,0.7938307,0.999737,3.544789
122.2049,125.638,0.8013349,0.9999016,3.544789
122.2546,99.95398,0.7963318,1.000066,3.544789
122.305,83.04321,0.7938307,0.9999016,3.544789
122.3562,75.79574,0.7863274,0.9999016,3.544789
122.405,91.94361,0.7763221,0.9999016,3.544789
122.4549,97.15671,0.7663167,0.9999016,3.538329
122.5051,97.28386,0.7513092,0.9999016,3.544789
122.5554,84.44184,0.7438058,0.9999016,3.544789
122.6057,81.39028,0.7187929,0.9999016,3.538329
122.6548,79.22876,0.6012337,0.9999016,3.538329
122.7054,76.55863,0.4036344,0.9999016,3.538329
122.7548,76.17719,0.2485557,0.9999016,3.538329
122.8046,114.0675,0.1685157,0.999737,3.538329
122.8557,132.504,0.1234931,0.9999016,3.538329
122.9048,113.4317,0.08847485,1.000066,3.538329
122.9548,96.64812,0.0009315669,0.999737,3.53187
123.0056,82.02603,-0.1491449,0.999737,3.53187
123.0548,83.17036,-0.2717064,0.9999016,3.53187
123.1067,97.15671,-0.399271,0.9999016,3.53187
123.1551,101.3526,-0.4943186,0.9999016,3.53187
123.2044,91.05358,-0.5318379,0.9999016,3.538329
123.2552,84.569,-0.5493466,0.9999016,3.53187
123.3053,81.64457,-0.5868649,0.9999016,3.53187
123.3563,79.22876,-0.6318876,0.9999016,3.53187
123.4047,77.06723,-0.8244847,0.9999016,3.53187
123.4549,79.10161,-1.034591,0.9999016,3.53187
123.5056,100.844,-1.189669,0.999737,3.53187
123.5547,133.1398,-1.244697,0.999737,3.53187
123.6055,108.6001,-1.19217,0.9999016,3.525411
123.655,96.90242,-1.17216,0.9999016,3.525411
123.7045,87.11198,-1.082115,0.9999016,3.525411
123.7545,89.40065,-0.9170321,0.9999016,3.525411
123.8046,99.06393,-0.8119792,0.999737,3.525411
123.8563,103.387,-0.7319383,0.9999016,3.525411
123.905,93.34225,-0.641893,0.999737,3.525411
123.9548,85.71333,-0.5743585,0.9999016,3.525411
124.0046,83.93326,-0.5193315,0.9999016,3.525411
124.0548,81.26313,-0.4192808,0.9999016,3.525411
124.1055,80.11879,-0.3467441,0.9999016,3.525411
124.1551,78.59301,-0.3567495,0.9999016,3.525411
124.2045,82.78893,-0.2817117,0.9999016,3.518952
124.2551,128.8167,-0.1766579,0.9999016,3.525411
124.3053,135.937,0.008434881,0.9999016,3.518952
124.3558,104.4042,0.1159889,0.9999016,3.518952
124.4046,95.88522,0.231047,0.9999016,3.518952
124.4545,85.58618,0.4236441,1.000066,3.518952
124.5054,93.59654,0.5712186,0.9999016,3.518952
124.5554,98.30104,0.7112896,0.9999016,3.518952
124.6057,103.2598,0.8538609,0.9999016,3.518952
