t_sec,abp_mmHg,resp_arbunit,spo2_unitless,scon_muS
0,103.7684,-0.3766387,0.9898543,1.968753
0.04881303,102.6241,-0.3612959,0.9896896,1.968753
0.09935996,99.06393,-0.3536252,0.9896896,1.968753
0.1494372,97.79247,-0.3114335,0.9896896,1.968753
0.1995425,97.41101,-0.2845847,0.9896896,1.968753
0.2494929,93.59654,-0.2730772,0.9896896,1.968753
0.2987986,91.94361,-0.2654065,0.9896896,1.968753
0.3484345,91.81647,-0.2960907,0.9896896,1.968753
0.3995006,91.94361,-0.3958169,0.9896896,1.968753
0.4494203,91.18073,-0.5262259,0.9898543,1.968753
0.5004056,110.7616,-0.5569115,0.9898543,1.968753
0.5492684,167.4699,-0.6067739,0.9898543,1.968753
0.5992659,168.9957,-0.6221167,0.9896896,1.968753
0.6492713,160.6039,-0.6221167,0.9896896,1.968753
0.6996431,158.9509,-0.6604716,0.9896896,1.968753
0.7494976,155.0093,-0.6259521,0.9898543,1.968753
0.7994278,137.8443,-0.6144446,0.9896896,1.968753
0.8495135,135.4285,-0.5569115,0.9896896,1.968753
0.8988098,134.2841,-0.5262259,0.9896896,1.968753
0.9500112,131.2325,-0.4763635,0.9900191,1.968753
0.9995197,122.9679,-0.4418439,0.9896896,1.962294
1.049518,115.9747,-0.3843094,0.9898543,1.968753
1.098891,113.8132,-0.3075982,0.9898543,1.968753
1.148412,109.8716,-0.2155441,0.9896896,1.968753
1.200644,107.9643,-0.1196533,0.9898543,1.968753
1.250391,105.2942,-0.03527135,0.9898543,1.968753
1.298744,104.0227,0.06829018,0.9896896,1.968753
1.349447,100.4626,0.1680149,0.9896896,1.968753
1.39939,99.44539,0.2523983,0.9896896,1.968753
1.449512,98.55534,0.3137681,0.9898543,1.968753
1.499731,95.37663,0.3482877,0.9898543,1.968753
1.54943,94.61374,0.3981501,0.9896896,1.968753
1.598522,93.72369,0.4326711,0.9896896,1.968753
1.649439,120.4249,0.4748628,0.9898543,1.962294
1.699441,163.1468,0.540068,0.9896896,1.962294
1.749799,172.8101,0.5899304,0.9896896,1.968753
1.798433,160.3496,0.670477,0.9898543,1.962294
1.848433,157.4252,0.7548603,0.9898543,1.962294
1.899219,144.5831,0.8162302,0.9896896,1.962294
1.94991,138.6072,0.8660926,0.9898543,1.962294
1.999933,137.7171,0.9312977,0.9896896,1.962294
2.04852,136.1913,0.9773248,0.9896896,1.962294
2.099355,130.0882,1.027187,0.9898543,1.962294
2.148616,122.205,1.084722,0.9898543,1.962294
2.199526,118.2634,1.134583,0.9896896,1.962294
2.250597,111.5245,1.176776,0.9898543,1.962294
2.298896,110.6345,1.207461,0.9898543,1.962294
2.34854,106.0571,1.230473,0.9898543,1.962294
2.399659,103.7684,1.23431,0.9896896,1.962294
2.450599,102.6241,1.238144,0.9898543,1.962294
2.499972,99.82683,1.218966,0.9898543,1.955835
2.548862,98.6825,1.188283,0.9896896,1.955835
2.59938,98.04675,1.088556,0.9896896,1.962294
2.649158,95.88522,1.031023,0.9898543,1.955835
2.699757,95.75809,0.9658173,0.9896896,1.955835
2.74949,115.4661,0.9197903,0.9896896,1.955835
2.798628,172.8101,0.8469144,0.9896896,1.955835
2.849631,162.1297,0.7702031,0.9896896,1.955835
2.899626,158.0609,0.6743137,0.9898543,1.955835
2.950421,150.5591,0.5976011,0.9898543,1.955835
3.000713,135.8099,0.5439033,0.9898543,1.955835
3.048882,133.6484,0.5132177,0.9896896,1.955835
3.098748,135.047,0.4556846,0.9898543,1.955835
3.14888,128.5624,0.4211636,0.9898543,1.949375
3.199638,121.0607,0.3828087,0.9898543,1.955835
3.250502,117.3734,0.3444524,0.9900191,1.955835
3.299128,113.0503,0.3176035,0.9896896,1.955835
3.349648,107.71,0.2869179,0.9898543,1.949375
3.399649,105.4214,0.2715765,0.9898543,1.949375
3.449703,103.7684,0.260069,0.9898543,1.949375
3.499661,101.8612,0.2370555,0.9896896,1.949375
3.549423,100.7169,0.1910285,0.9896896,1.949375
3.599676,98.9368,0.1756871,0.9898543,1.949375
3.649679,97.66531,0.07979623,0.9896896,1.949375
3.699683,96.90242,0.02226315,0.9898543,1.949375
3.750509,99.44539,-0.0391067,0.9898543,1.949375
3.798904,166.9613,-0.06979091,0.9896896,1.942916
3.848913,177.5146,-0.1081472,0.9896896,1.942916
3.898907,173.573,-0.1273254,0.9896896,1.949375
3.950698,166.0713,-0.1503389,0.9896896,1.949375
4.000635,162.7654,-0.1925306,0.9896896,1.942916
4.048873,146.6175,-0.242393,0.9896896,1.942916
4.09891,142.0402,-0.2462283,0.9896896,1.942916
4.14888,139.8786,-0.242393,0.9898543,1.942916
4.200287,138.0986,-0.242393,0.9900191,1.942916
4.250285,126.4009,-0.2347223,0.9898543,1.942916
4.299041,122.0779,-0.2308855,0.9896896,1.942916
4.349339,118.2634,-0.2232148,0.9898543,1.942916
4.398894,113.9403,-0.2040367,0.9896896,1.942916
4.450293,113.1774,-0.1886953,0.9900191,1.942916
4.500121,107.5829,-0.1733524,0.9898543,1.942916
4.549742,103.8956,-0.1426668,0.9896896,1.942916
4.598703,101.9884,-0.1349961,0.9896896,1.942916
4.648677,100.4626,-0.1273254,0.9898543,1.936457
4.699999,99.95398,-0.1273254,0.989525,1.936457
4.750762,98.04675,-0.1656803,0.9900191,1.942916
4.799663,95.50377,-0.2385576,0.9898543,1.936457
4.849646,94.2323,-0.3536252,0.9896896,1.936457
4.899675,116.4833,-0.4495146,0.9896896,1.936457
4.949619,174.0816,-0.499377,0.9898543,1.936457
4.999737,171.6658,-0.4955417,0.9896896,1.936457
5.04916,166.707,-0.499377,0.9898543,1.936457
5.09901,163.9097,-0.5032123,0.9896896,1.936457
5.149482,159.7138,-0.499377,0.9898543,1.929998
5.200721,142.8031,-0.4686928,0.9900191,1.936457
5.25068,141.023,-0.3804741,0.9896896,1.936457
5.299404,141.023,-0.3574606,0.9898543,1.929998
5.348744,133.5212,-0.3306117,0.9896896,1.936457
5.398743,127.6724,-0.3114335,0.9896896,1.929998
5.449824,121.6964,-0.2807493,0.9896896,1.929998
5.499664,117.3734,-0.2347223,0.9898543,1.936457
5.549114,114.3218,-0.1465036,0.9896896,1.929998
5.598996,109.9987,-0.09663977,0.9898543,1.929998
5.649281,107.5829,0.006920336,0.9898543,1.929998
5.70041,105.5485,0.1143172,0.9898543,1.929998
5.749933,101.6069,0.1948638,0.9898543,1.929998
5.79953,98.42819,0.2677411,0.9898543,1.929998
5.849652,96.26666,0.3559598,0.9896896,1.923539
5.899489,94.61374,0.4134929,0.9898543,1.929998
5.950469,93.72369,0.5439033,0.9896896,1.929998
6.000526,92.96081,0.8545865,0.9898543,1.929998
6.04885,129.071,1.050201,0.9896896,1.929998
6.098759,173.3188,1.123078,0.9898543,1.923539
6.149571,170.14,1.211295,0.9898543,1.929998
6.200756,165.9441,1.345542,0.9896896,1.929998
6.25074,162.8926,1.376225,0.9900191,1.929998
6.299408,159.7138,1.39924,0.9896896,1.923539
6.349607,141.023,1.429923,0.9896896,1.923539
6.399777,140.2601,1.449101,0.9900191,1.929998
6.449648,140.3873,1.460609,0.9896896,1.923539
6.500826,131.614,1.429923,0.9898543,1.929998
6.549445,125.1294,1.326364,0.9898543,1.929998
6.599151,119.7892,1.061707,0.9898543,1.929998
6.648854,115.4661,0.7395175,0.9898543,1.917079
6.700104,115.339,0.2754118,0.9896896,1.923539
6.750077,109.6173,-0.1541743,0.9898543,1.923539
6.79986,107.3286,-0.6144446,0.9898543,1.923539
6.849859,102.6241,-1.136085,0.9896896,1.923539
6.899602,100.7169,-1.596357,0.9896896,1.923539
6.950461,98.42819,-1.814984,0.9896896,1.929998
6.999733,97.28386,-2.509226,0.9898543,1.923539
7.049106,95.75809,-2.735526,0.9896896,1.917079
7.098962,100.7169,-3.153605,0.9896896,1.917079
7.148857,157.9338,-3.138263,0.9896896,1.917079
7.200863,171.7929,-3.180455,0.9898543,1.917079
7.250835,165.1812,-3.307029,0.9896896,1.917079
7.2994,161.7482,-3.387577,0.9896896,1.917079
7.349926,158.3152,-3.533329,0.9896896,1.917079
7.399782,139.3701,-3.544836,0.9900191,1.917079
7.449863,137.0814,-3.307029,0.9898543,1.917079
7.50012,136.5728,-3.414426,0.9896896,1.923539
7.548964,136.4456,-3.702095,0.9896896,1.917079
7.598783,122.205,-4.070312,0.9898543,1.917079
7.649016,119.7892,-4.933319,0.9896896,1.917079
7.700396,119.2806,-5.42044,0.9896896,1.91062
7.750126,115.0847,-5.140441,0.9898543,1.917079
7.799778,109.8716,-4.634143,0.9898543,1.91062
7.848771,106.0571,-4.699348,0.9898543,1.917079
7.898849,104.7856,-4.204557,0.9898543,1.917079
7.949764,103.1327,-4.269763,0.9898543,1.917079
8.000336,102.2427,-4.503733,0.9898543,1.91062
8.049521,98.80965,-4.281269,0.9896896,1.91062
8.099517,99.57254,-3.809491,0.9896896,1.91062
8.148854,106.0571,-3.893874,0.9896896,1.917079
8.2009,160.4767,-3.870861,0.9896896,1.91062
8.25022,175.8617,-3.878533,0.9898543,1.917079
8.298929,169.3771,-3.828669,0.9896896,1.91062
8.348768,163.7826,-3.824834,0.9898543,1.917079
8.399513,160.2224,-3.809491,0.9898543,1.917079
8.450396,138.6072,-3.74045,0.9896896,1.917079
8.500761,136.4456,-3.648396,0.9898543,1.917079
8.549267,137.3357,-3.541001,0.9898543,1.917079
8.599084,133.5212,-3.422096,0.9896896,1.917079
8.649597,125.638,-3.287851,0.9898543,1.923539
8.700626,125.638,-3.314701,0.9898543,1.929998
8.750599,115.4661,-3.28018,0.9896896,1.929998
8.799266,112.0331,-3.299358,0.9898543,1.929998
8.848767,108.4729,-3.24566,0.9898543,1.929998
8.89992,104.7856,-3.326207,0.9896896,1.936457
8.950732,103.6413,-3.659904,0.9898543,1.936457
9.000388,101.9884,-4.147023,0.9896896,1.949375
9.04926,97.02956,-4.200722,0.9898543,1.949375
9.099263,109.2358,-4.170036,0.9898543,1.949375
9.148851,165.4355,-3.840176,0.9898543,1.955835
9.200635,172.1744,-3.452782,0.9898543,1.962294
9.250219,165.3084,-3.076894,0.9896896,1.968753
9.298841,162.1297,-2.981004,0.9896896,1.968753
9.35001,159.0781,-3.088401,0.9896896,1.981671
9.399565,138.2257,-3.264837,0.9898543,1.981671
9.450389,135.6828,-3.310864,0.9896896,1.994589
9.500471,136.1913,-3.44511,0.9898543,2.001049
9.549969,133.7755,-3.583191,0.9898543,2.001049
9.599972,122.9679,-3.552507,0.9898543,2.007508
9.649235,117.5005,-3.425933,0.9896896,2.013967
9.700507,114.7032,-3.28018,0.9898543,2.026885
9.749845,109.7444,-2.984839,0.9896896,2.026885
9.799597,105.8028,-2.421008,0.9898543,2.039804
9.848963,101.9884,-2.022107,0.9898543,2.046263
9.899995,101.0983,-1.761286,0.9898543,2.059181
9.949881,99.44539,-1.431425,0.9896896,2.059181
10.0008,97.66531,-1.254989,0.9898543,2.06564
10.04899,149.6691,-1.024853,0.9896896,2.072099
10.09884,171.6658,-0.7486903,0.9896896,2.078558
10.14959,167.2156,-0.4840356,0.9898543,2.085018
10.20066,163.0197,-0.3306117,0.9898543,2.097936
10.25071,160.2224,-0.2347223,0.9898543,2.104395
10.29946,137.3357,-0.1733524,0.9898543,2.110854
10.34999,134.9198,-0.1004765,0.9898543,2.117313
10.39909,134.0298,-0.05061274,0.9898543,2.130232
10.45008,132.8855,-0.0391067,0.9898543,2.130232
10.50007,125.638,-0.05061274,0.9898543,2.136691
10.54884,114.4489,-0.09280442,0.9896896,2.14315
10.599,109.9987,-0.1580096,0.9898543,2.149609
10.64959,109.2358,-0.207872,0.9896896,2.156069
10.70083,107.5829,-0.253899,0.9896896,2.162528
10.75084,104.6585,-0.3804741,0.9896896,2.175446
10.79959,103.387,-0.6604716,0.9898543,2.175446
10.85008,101.6069,-1.021017,0.9896896,2.181905
10.89958,94.99519,-1.266495,0.9896896,2.188364
10.95083,131.8683,-1.684575,0.9896896,2.194824
11.00083,170.2672,-1.880189,0.9898543,2.194824
11.04993,170.6486,-2.094983,0.9898543,2.201283
11.09996,164.4183,-2.401829,0.9896896,2.214201
11.14959,161.7482,-2.597445,0.9896896,2.214201
11.20083,153.3564,-2.616623,0.9898543,2.22066
11.25062,135.937,-2.597445,0.9898543,2.227119
11.29987,135.8099,-2.543747,0.9896896,2.227119
11.34985,136.0642,-2.543747,0.9896896,2.233578
11.39987,129.7068,-2.53224,0.9900191,2.233578
11.45108,119.9163,-2.467035,0.9898543,2.240038
11.50108,114.7032,-2.463199,0.9898543,2.246497
11.54988,109.7444,-2.597445,0.9896896,2.246497
11.60011,106.9472,-2.689499,0.9900191,2.252956
11.64975,105.5485,-2.777718,0.9896896,2.259415
11.69958,104.9128,-2.800731,0.9896896,2.259415
11.74958,99.82683,-2.816074,0.9896896,2.265874
11.79962,98.1739,-2.877443,0.9896896,2.265874
11.85034,96.26666,-2.927305,0.9898543,2.272334
11.89895,95.12233,-2.99251,0.9898543,2.278793
11.94983,143.4388,-3.023196,0.9896896,2.278793
11.99983,172.5559,-3.007853,0.9898543,2.291711
12.0498,167.9785,-2.965661,0.9898543,2.29817
12.10086,163.274,-2.938812,0.9898543,2.285252
12.14933,161.6211,-2.931142,0.9898543,2.265874
12.19933,143.4388,-2.954155,0.9896896,2.272334
12.24892,136.4456,-3.015524,0.9898543,2.278793
12.29957,135.8099,-3.046209,0.9896896,2.285252
12.35082,136.4456,-3.103743,0.9896896,2.285252
12.39958,124.1122,-3.253331,0.9898543,2.291711
12.4491,119.5349,-3.901546,0.9898543,2.291711
12.49979,114.7032,-4.19305,0.9896896,2.29817
12.54958,109.6173,-4.373322,0.9898543,2.29817
12.60108,105.8028,-4.350309,0.9898543,2.304629
12.6493,104.277,-4.212228,0.9896896,2.304629
12.69908,101.8612,-4.012777,0.9896896,2.304629
12.74908,97.79247,-3.805655,0.9896896,2.304629
12.79907,98.30104,-3.602369,0.9898543,2.311089
12.85004,94.61374,-3.479631,0.9898543,2.311089
12.89987,91.81647,-3.237988,0.989525,2.317548
12.94957,125.0023,-3.111415,0.9896896,2.324007
12.99945,171.1572,-2.781553,0.9898543,2.330466
13.04902,169.25,-2.390323,0.9898543,2.330466
13.10023,166.3256,-2.213886,0.9896896,2.330466
13.1497,162.5111,-2.14101,0.9896896,2.324007
13.19957,153.1021,-2.052791,0.9898543,2.317548
13.24904,133.1398,-1.937724,0.9896896,2.317548
13.29991,132.7583,-1.638548,0.9896896,2.324007
13.35069,136.1913,-1.408412,0.9898543,2.330466
13.39907,128.181,-1.48896,0.9898543,2.330466
13.44909,119.662,-1.703752,0.9898543,2.330466
13.50007,117.7548,-1.772792,0.9896896,2.343384
13.54944,109.2358,-1.834162,0.9896896,2.343384
13.60046,107.71,-1.868683,0.9898543,2.349844
13.64964,106.0571,-1.853341,0.9898543,2.349844
13.69931,105.2942,-1.895532,0.9898543,2.356302
13.74957,99.57254,-1.930052,0.9898543,2.356302
13.79901,99.19109,-1.976079,0.9896896,2.356302
13.85093,93.72369,-2.060462,0.9896896,2.362762
13.89946,94.86804,-2.190873,0.9898543,2.362762
13.94919,133.1398,-2.194708,0.9896896,2.369221
13.9992,172.8101,-2.183202,0.9896896,2.369221
14.04906,168.6142,-2.198543,0.9896896,2.369221
14.10066,163.274,-2.190873,0.9896896,2.369221
14.1492,158.5695,-2.198543,0.9898543,2.369221
14.20008,140.6415,-2.210051,0.9900191,2.382139
14.25006,133.1398,-2.229229,0.9896896,2.382139
14.29947,132.7583,-2.206215,0.9896896,2.382139
14.35043,133.1398,-2.179365,0.9896896,2.382139
14.39906,122.205,-2.160188,0.9898543,2.382139
14.45022,120.4249,-2.148681,0.9898543,2.388598
14.49993,113.9403,-2.133338,0.9896896,2.388598
14.54993,108.8544,-2.125667,0.9796425,2.388598
14.60008,103.8956,-2.114161,0.9798071,2.395057
14.65008,101.8612,-2.110325,0.9798071,2.395057
14.70008,101.8612,-2.102654,0.9799718,2.401517
14.74981,99.31824,-2.110325,0.9796425,2.401517
14.79991,97.66531,-2.164024,0.9798071,2.401517
14.85008,95.75809,-2.256078,0.9796425,2.401517
14.89906,92.96081,-2.417172,0.9798071,2.401517
14.94981,129.3253,-2.551418,0.9796425,2.401517
14.99981,173.1916,-2.666486,0.9798071,2.407976
15.04981,170.5215,-2.766211,0.9798071,2.407976
15.10007,164.4183,-2.81991,0.9798071,2.414435
15.15006,159.7138,-2.919634,0.9798071,2.414435
15.20018,143.1845,-2.988675,0.9799718,2.414435
15.25024,131.9954,-3.004018,0.9798071,2.420894
15.30008,131.614,-2.946483,0.9798071,2.420894
15.35008,133.1398,-2.896621,0.9798071,2.414435
15.40007,126.0195,-2.708677,0.9798071,2.420894
15.45023,115.8476,-2.478542,0.9798071,2.420894
15.49916,113.0503,-2.317448,0.9796425,2.420894
15.54907,107.5829,-2.152516,0.9898543,2.420894
15.60072,103.387,-1.953065,0.9898543,2.427353
15.64933,102.2427,-1.665397,0.9896896,2.427353
15.70014,101.9884,-1.350878,0.9898543,2.420894
15.74993,98.1739,-1.174441,0.9896896,2.427353
15.79996,96.13953,-1.055538,0.9898543,2.427353
15.85122,94.2323,-0.8906082,0.9898543,2.433812
15.90006,93.34225,-0.7717038,0.9898543,2.427353
15.95004,141.7859,-0.5760897,0.9896896,2.427353
16.0002,173.0645,-0.4034876,0.9898543,2.433812
16.0502,167.8513,-0.3191042,0.9896896,2.427353
16.10081,162.1297,-0.2232148,0.9898543,2.433812
16.14935,156.6623,-0.1771878,0.9898543,2.433812
16.19945,134.9198,-0.1426668,0.9898543,2.433812
16.24922,129.8339,-0.07746303,0.9898543,2.433812
16.29979,129.5796,-0.01225783,0.9896896,2.433812
16.35093,130.3425,0.0184278,0.9896896,2.433812
16.39968,120.0435,0.05294737,0.9898543,2.433812
16.45022,115.4661,0.07979623,0.9896896,2.433812
16.49977,110.253,0.08746835,0.9896896,2.427353
16.54937,107.2015,0.09513905,0.9898543,2.433812
16.60092,104.0227,0.0913037,0.9898543,2.433812
16.64955,102.2427,0.07979623,0.9896896,2.427353
16.6993,101.0983,0.05294737,0.9896896,2.433812
16.74977,98.80965,-0.02759923,0.9898543,2.427353
16.80006,97.53816,-0.1158179,0.9898543,2.433812
16.85138,95.24948,-0.2270502,0.9898543,2.427353
16.89964,116.9919,-0.3114335,0.9898543,2.427353
16.94917,171.6658,-0.3919801,0.9898543,2.433812
17.00017,170.3943,-0.5607468,0.9900191,2.427353
17.04992,158.188,-0.8100602,0.9898543,2.433812
17.10081,154.6279,-0.955812,0.9896896,2.433812
17.1503,143.3117,-1.03636,0.9896896,2.433812
17.20035,129.1982,-1.09773,0.9898543,2.433812
17.25035,131.4868,-1.132249,0.9896896,2.427353
17.29934,131.1054,-1.189784,0.9896896,2.427353
17.35132,121.8235,-1.231976,0.9896896,2.433812
17.3999,113.8132,-1.239646,0.9896896,2.433812
17.44984,111.7788,-1.266495,0.9896896,2.433812
17.5003,106.4386,-1.285673,0.9898543,2.433812
17.54954,104.9128,-1.320193,0.9896896,2.433812
17.60084,102.2427,-1.42759,0.9898543,2.427353
17.65029,100.7169,-1.519644,0.9896896,2.433812
17.70007,98.80965,-1.715259,0.9896896,2.433812
17.74945,96.90242,-1.918546,0.9896896,2.433812
17.79992,96.01237,-2.052791,0.9898543,2.433812
17.85104,136.4456,-2.129503,0.9896896,2.433812
17.89942,175.0988,-2.267584,0.9896896,2.433812
17.95054,169.7586,-2.382651,0.9896896,2.440272
18.00043,165.9441,-2.585938,0.9896896,2.440272
18.05045,159.3324,-2.800731,0.9898543,2.440272
18.10043,139.3701,-2.873607,0.9896896,2.440272
18.14938,135.4285,-2.88895,0.9898543,2.440272
18.20067,134.2841,-2.881278,0.9898543,2.440272
18.2494,132.6312,-2.881278,0.9898543,2.446731
18.29927,122.0779,-2.873607,0.9896896,2.446731
18.3508,118.6448,-2.865937,0.9896896,2.45319
18.40038,109.4901,-2.850594,0.9898543,2.446731
18.45025,106.4386,-2.804567,0.9898543,2.45319
18.4998,104.1499,-2.766211,0.9896896,2.45319
18.55017,104.5313,-2.739362,0.999737,2.45319
18.60029,98.30104,-2.731691,0.999737,2.45319
18.65029,97.28386,-2.773883,0.999737,2.446731
18.70029,97.41101,-2.831416,0.999737,2.45319
18.74979,97.28386,-2.865937,0.999737,2.45319
18.79955,118.8991,-2.885115,0.9999016,2.45319
18.85057,172.0473,-2.881278,0.999737,2.459649
18.90004,171.2844,-2.885115,0.999737,2.45319
18.95078,163.274,-2.885115,0.9995722,2.459649
18.99957,160.4767,-2.896621,0.9999016,2.45319
19.04961,141.023,-2.896621,0.9999016,2.459649
19.10081,132.2497,-2.896621,0.999737,2.459649
19.15029,131.8683,-2.850594,0.9999016,2.459649
19.20108,131.8683,-2.842923,0.9999016,2.459649
19.24981,122.8407,-2.835251,0.999737,2.459649
19.29959,120.8064,-2.81991,0.999737,2.459649
19.35038,110.3802,-2.812238,0.999737,2.459649
19.40008,107.9643,-2.804567,0.999737,2.459649
19.45082,106.4386,-2.770047,0.999737,2.459649
19.50033,103.7684,-2.754704,0.999737,2.459649
19.54952,101.8612,-2.716348,0.999737,2.459649
19.60081,99.44539,-2.635802,0.999737,2.459649
19.64965,98.04675,-2.559089,0.999737,2.459649
19.7008,97.15671,-2.574432,0.999737,2.459649
19.74958,93.85085,-2.520734,0.999737,2.459649
19.7993,116.4833,-2.459364,0.999737,2.459649
19.85103,170.9029,-2.355803,0.9999016,2.459649
19.89978,170.5215,-2.206215,0.999737,2.459649
19.95061,163.6555,-2.098819,0.999737,2.459649
20.00028,160.3496,-2.041284,0.9999016,2.459649
20.05003,145.346,-1.945395,0.999737,2.459649
20.10103,130.724,-1.623205,0.999737,2.459649
20.14938,129.9611,-1.247317,0.999737,2.45319
20.20033,130.3425,-1.136085,0.999737,2.459649
20.25033,126.1466,-1.013346,0.999737,2.45319
20.30007,117.2462,-0.8369091,0.9999016,2.45319
20.351,111.5245,-0.6412949,0.999737,2.45319
20.40054,108.7272,-0.4763635,0.999737,2.45319
20.45054,106.4386,-0.28842,0.999737,2.45319
20.50028,101.4798,-0.1349961,0.999737,2.45319
20.54977,99.95398,-0.00842248,0.9995722,2.446731
20.6004,99.44539,0.05294737,0.999737,2.45319
20.65028,98.42819,0.1066465,0.999737,2.446731
20.70153,97.53816,0.0989744,0.9999016,2.45319
20.74961,94.10515,0.1028097,0.999737,2.446731
20.79968,104.9128,0.06445483,0.999737,2.446731
20.85092,168.8685,0.04527667,0.999737,2.446731
20.89969,169.3771,0.003084986,0.999737,2.446731
20.9506,163.6555,-0.0391067,0.999737,2.440272
20.99977,157.6795,-0.1158179,0.9999016,2.440272
21.04944,152.7207,-0.2002013,0.999737,2.440272
21.10069,132.7583,-0.3306117,0.9999016,2.440272
21.15013,131.9954,-0.4418439,0.9999016,2.440272
21.2009,130.2153,-0.5914311,0.999737,2.440272
21.24958,127.7995,-0.8062248,0.9999016,2.440272
21.29973,120.5521,-0.8829361,0.9999016,2.433812
21.35102,111.5245,-0.9826623,0.999737,2.433812
21.39952,105.5485,-1.055538,0.999737,2.433812
21.45067,102.6241,-1.136085,0.9999016,2.433812
21.50056,100.3354,-1.239646,0.999737,2.433812
21.55037,98.6825,-1.370057,0.999737,2.440272
21.60102,97.28386,-1.511973,0.999737,2.433812
21.64952,95.75809,-1.634711,0.9999016,2.433812
21.70161,94.61374,-1.956902,0.9999016,2.433812
21.75019,94.48659,-2.064297,0.999737,2.433812
21.7999,108.3458,-2.213886,0.9999016,2.433812
21.85103,170.6486,-2.317448,0.9995722,2.433812
21.89968,171.2844,-2.432515,0.999737,2.427353
21.95098,164.0369,-2.570596,0.999737,2.433812
22.00043,159.3324,-2.739362,0.999737,2.433812
22.05043,153.1021,-2.823745,0.9999016,2.433812
22.10156,132.7583,-2.877443,0.999737,2.427353
22.15004,131.8683,-2.854429,0.999737,2.427353
22.2014,130.4697,-2.846758,0.999737,2.433812
22.25031,127.7995,-2.842923,0.999737,2.427353
22.30043,115.8476,-2.839088,0.999737,2.427353
22.35144,112.6688,-2.831416,0.9995722,2.427353
22.40004,106.0571,-2.823745,0.9999016,2.420894
22.45131,103.6413,-2.804567,0.9999016,2.427353
22.50031,101.0983,-2.770047,0.999737,2.420894
22.55027,99.57254,-2.739362,0.999737,2.420894
22.60143,98.55534,-2.727855,0.999737,2.420894
22.64978,96.13953,-2.708677,0.999737,2.420894
22.70101,96.13953,-2.785389,0.999737,2.420894
22.74964,91.81647,-2.796896,0.999737,2.420894
22.79986,93.85085,-2.842923,0.9999016,2.420894
22.85104,154.2464,-2.865937,0.999737,2.420894
22.89979,170.6486,-2.885115,0.999737,2.414435
22.95103,166.3256,-2.885115,0.9999016,2.414435
22.99956,161.6211,-2.892786,0.999737,2.414435
23.05056,156.2808,-2.892786,0.9999016,2.414435
23.10055,140.8958,-2.892786,0.999737,2.414435
23.15032,129.9611,-2.854429,0.9999016,2.414435
23.2013,128.9439,-2.82758,0.9999016,2.414435
23.25,129.9611,-2.816074,0.999737,2.407976
23.30005,118.5177,-2.804567,0.999737,2.407976
23.35143,114.9575,-2.785389,0.999737,2.414435
23.39956,105.93,-2.781553,0.999737,2.407976
23.45089,103.7684,-2.754704,0.9999016,2.407976
23.49956,102.2427,-2.720183,0.999737,2.401517
23.54955,99.57254,-2.708677,0.999737,2.407976
23.60062,96.52097,-2.685664,0.999737,2.407976
23.64982,96.13953,-2.681828,0.999737,2.401517
23.70103,95.88522,-2.693335,0.999737,2.401517
23.74987,93.46941,-2.773883,0.999737,2.401517
23.79956,91.81647,-2.793061,0.9999016,2.401517
23.85084,109.1087,-2.823745,0.999737,2.395057
23.90067,165.9441,-2.846758,0.999737,2.395057
23.95053,171.2844,-2.850594,0.9999016,2.395057
24.00036,167.7242,-2.839088,0.9999016,2.395057
24.05002,154.2464,-2.846758,0.999737,2.395057
24.1013,145.0918,-2.839088,0.999737,2.395057
24.14968,133.5212,-2.831416,0.999737,2.388598
24.20117,128.8167,-2.793061,0.999737,2.388598
24.25067,127.2909,-2.750869,0.999737,2.388598
24.30053,124.748,-2.693335,0.999737,2.388598
24.35153,111.6517,-2.60128,0.9999016,2.382139
24.4003,109.9987,-2.428679,0.999737,2.382139
24.45126,106.0571,-2.29827,0.999737,2.382139
24.49991,103.0055,-2.164024,0.999737,2.37568
24.54976,101.6069,-2.056627,0.9999016,2.37568
24.60092,97.66531,-1.937724,0.999737,2.37568
24.65013,96.01237,-1.558,0.999737,2.37568
24.70113,95.75809,-1.297179,0.999737,2.37568
24.74975,95.37663,-1.185949,0.999737,2.37568
24.8005,90.67213,-1.105401,0.999737,2.369221
24.85114,94.2323,-1.082387,0.9999016,2.37568
24.89981,144.8374,-1.021017,0.999737,2.369221
24.95074,170.9029,-0.9481413,0.999737,2.369221
25.00063,168.2328,-0.8062248,0.999737,2.362762
25.05068,156.5351,-0.5032123,0.9999016,2.362762
25.10142,151.7035,-0.3574606,0.999737,2.362762
25.14964,131.9954,-0.2960907,0.999737,2.362762
25.20066,127.4181,-0.1426668,0.9999016,2.362762
25.24965,127.9267,-0.0391067,0.999737,2.356302
25.30066,128.8167,0.006920336,0.9995722,2.362762
25.35066,118.772,0.04911202,0.999737,2.362762
25.40042,112.1602,0.083633,0.999737,2.356302
25.45142,107.4557,0.09513905,0.9999016,2.356302
25.49981,104.9128,0.09513905,0.999737,2.356302
25.54963,101.0983,0.1066465,0.9896896,2.356302
25.60172,99.82683,0.1028097,0.9896896,2.362762
25.6498,96.90242,0.0913037,0.9896896,2.349844
25.701,96.39381,0.02993385,0.9896896,2.356302
25.75037,95.63092,-0.09663977,0.9898543,2.349844
25.80009,93.85085,-0.2385576,0.9896896,2.356302
25.85175,93.72369,-0.3919801,0.9896896,2.349844
25.89989,150.3048,-0.5070491,0.9898543,2.349844
25.95112,170.0129,-0.7064987,0.9898543,2.343384
25.9999,163.1468,-0.7640331,0.9900191,2.349844
26.05037,152.2121,-0.8599226,0.9898543,2.349844
26.10162,146.8718,-0.944306,0.9896896,2.343384
26.15025,128.0538,-1.005676,0.9898543,2.343384
26.20149,125.638,-1.040195,0.9896896,2.343384
26.24958,126.4009,-1.090058,0.9896896,2.336925
26.29966,125.7652,-1.178276,0.9898543,2.336925
26.35101,114.0675,-1.231976,0.9898543,2.343384
26.39979,110.3802,-1.312522,0.9898543,2.336925
26.45171,106.4386,-1.377727,0.9896896,2.336925
26.49974,103.2598,-1.389235,0.9896896,2.330466
26.54974,102.2427,-1.400741,0.9896896,2.330466
26.60112,99.19109,-1.416084,0.9896896,2.330466
26.65053,98.04675,-1.42759,0.9898543,2.330466
26.70178,97.41101,-1.469781,0.9896896,2.330466
26.75053,94.86804,-1.538822,0.9896896,2.324007
26.80003,94.86804,-1.684575,0.9896896,2.324007
26.85074,91.56216,-1.7843,0.9898543,2.330466
26.89996,112.6688,-1.91471,0.9898543,2.324007
26.95178,171.6658,-1.94923,0.9896896,2.324007
27.00053,171.6658,-1.999092,0.9898543,2.324007
27.04978,156.5351,-2.033613,0.9896896,2.324007
27.10073,152.5935,-2.102654,0.9898543,2.317548
27.1505,146.999,-2.206215,0.9898543,2.317548
27.20178,129.071,-2.229229,0.9898543,2.317548
27.25053,128.6896,-2.210051,0.9898543,2.317548
27.30053,128.181,-2.198543,0.9896896,2.311089
27.35178,123.2222,-2.187037,0.9898543,2.317548
27.40025,114.9575,-2.183202,0.9898543,2.311089
27.45126,110.8888,-2.179365,0.9898543,2.317548
27.50001,103.7684,-2.171694,0.9898543,2.311089
27.55001,101.2255,-2.152516,0.9896896,2.304629
27.60123,100.4626,-2.114161,0.9898543,2.311089
27.65058,99.57254,-2.102654,0.9898543,2.304629
27.70085,99.57254,-2.07964,0.9896896,2.304629
27.75053,96.77527,-2.068134,0.9898543,2.304629
27.79999,94.99519,-2.133338,0.9896896,2.304629
27.85174,92.57936,-2.187037,0.9900191,2.304629
27.89996,89.90925,-2.233064,0.9898543,2.29817
27.95136,119.9163,-2.290597,0.9898543,2.29817
28.00008,164.164,-2.340461,0.9896896,2.29817
28.04994,167.7242,-2.351967,0.9898543,2.29817
28.10185,154.755,-2.344296,0.9896896,2.29817
28.15048,151.4492,-2.355803,0.9896896,2.29817
28.20098,132.6312,-2.359638,0.9896896,2.291711
28.25073,129.4525,-2.321283,0.9898543,2.29817
28.30065,128.5624,-2.29827,0.9898543,2.291711
28.35153,127.4181,-2.290597,0.9896896,2.291711
28.40069,121.4421,-2.286762,0.9898543,2.291711
28.45173,114.1946,-2.275256,0.9896896,2.291711
28.50021,108.7272,-2.267584,0.989525,2.291711
28.55008,104.9128,-2.259913,0.9896896,2.285252
28.6016,102.7513,-2.233064,0.9896896,2.291711
28.65019,100.3354,-2.213886,0.9896896,2.285252
28.70077,98.9368,-2.213886,0.9896896,2.285252
28.75064,97.15671,-2.217721,0.9896896,2.285252
28.80021,95.75809,-2.210051,0.9896896,2.285252
28.85135,93.72369,-2.27142,0.9898543,2.285252
28.90061,93.34225,-2.30594,0.9898543,2.285252
28.95135,98.30104,-2.482378,0.9896896,2.278793
28.99999,145.0918,-2.524569,0.9898543,2.278793
29.0508,170.3943,-2.566761,0.9896896,2.278793
29.10138,163.7826,-2.551418,0.9896896,2.278793
29.14974,149.6691,-2.555254,0.9898543,2.278793
29.20085,146.2361,-2.536075,0.9898543,2.278793
29.25035,126.9095,-2.536075,0.9898543,2.278793
29.30086,125.1294,-2.463199,0.9898543,2.278793
29.3516,125.2566,-2.397994,0.9898543,2.278793
29.40013,127.6724,-2.382651,0.9898543,2.278793
29.45112,118.2634,-2.332789,0.9898543,2.278793
29.50039,112.9231,-2.294434,0.9898543,2.278793
29.54998,109.4901,-2.248406,0.9798071,2.272334
29.60113,105.93,-2.187037,0.9796425,2.272334
29.64985,102.7513,-2.075805,0.9798071,2.272334
29.70176,100.4626,-2.0106,0.9798071,2.272334
29.75035,100.844,-1.94923,0.9796425,2.272334
29.80012,98.04675,-1.864848,0.9798071,2.272334
29.85093,96.01237,-1.719095,0.9798071,2.272334
29.89997,94.35944,-1.627041,0.9798071,2.272334
29.95197,91.56216,-1.439097,0.9796425,2.272334
30.0006,98.80965,-1.347043,0.9798071,2.265874
30.04992,149.5419,-1.197455,0.9798071,2.265874
30.10097,164.7998,-1.120743,0.9798071,2.265874
30.15073,155.5179,-0.9864976,0.9796425,2.265874
30.20197,149.4148,-0.8100602,0.9796425,2.265874
30.2506,142.2945,-0.6873219,0.9798071,2.265874
30.30101,127.7995,-0.5684175,0.9798071,2.259415
30.35124,126.9095,-0.3114335,0.9798071,2.265874
30.40064,128.181,-0.2155441,0.9798071,2.265874
30.45084,119.7892,-0.1043119,0.9798071,2.259415
30.50047,116.9919,0.01075569,0.9798071,2.259415
30.55047,109.7444,0.07212553,0.9896896,2.259415
30.60172,107.4557,0.1373307,0.9898543,2.259415
30.65047,104.4042,0.1987006,0.9896896,2.259415
30.70122,101.2255,0.248563,0.9898543,2.259415
30.75085,99.95398,0.2984253,0.9896896,2.259415
30.8006,99.19109,0.340617,0.9898543,2.259415
30.85156,98.1739,0.3482877,0.9898543,2.259415
30.90076,97.79247,0.340617,0.9898543,2.259415
30.95176,93.08795,0.306096,0.9896896,2.259415
31.00076,126.0195,0.2715765,0.9896896,2.252956
31.05076,170.9029,0.2523983,0.9896896,2.259415
31.10155,170.2672,0.2217141,0.9896896,2.259415
31.15031,154.755,0.1795224,0.9898543,2.259415
31.20157,149.6691,0.12966,0.9896896,2.259415
31.25024,135.3013,0.03760455,0.9896896,2.252956
31.30018,126.4009,-0.06212021,0.9896896,2.252956
31.35163,126.528,-0.161845,0.9896896,2.259415
31.39997,129.9611,-0.3075982,0.9898543,2.252956
31.45122,121.8235,-0.533898,0.9896896,2.252956
31.49997,113.686,-0.7103354,0.9896896,2.252956
31.54983,110.8888,-0.7832113,0.9898543,2.252956
31.60085,107.8372,-0.8867714,0.9896896,2.246497
31.65072,104.9128,-0.9634841,0.9898543,2.252956
31.70171,103.387,-1.078552,0.9900191,2.252956
31.75035,100.9712,-1.297179,0.9896896,2.252956
31.80035,99.19109,-1.423754,0.9898543,2.252956
31.85156,98.42819,-1.673068,0.9896896,2.252956
31.90005,96.13953,-1.711424,0.9898543,2.246497
31.95109,118.8991,-1.765122,0.9896896,2.246497
32.00109,169.7586,-1.780465,0.9898543,2.246497
32.05109,168.1057,-1.811149,0.9896896,2.246497
32.10109,162.2568,-1.803478,0.9898543,2.246497
32.15024,156.7894,-1.811149,0.9896896,2.246497
32.20144,146.2361,-1.830327,0.9896896,2.246497
32.25021,134.4113,-1.849505,0.9898543,2.246497
32.30033,133.0126,-1.818821,0.9896896,2.246497
32.35162,130.724,-1.811149,0.9898543,2.246497
32.40026,125.0023,-1.803478,0.9898543,2.240038
32.4516,119.4077,-1.780465,0.9896896,2.246497
32.50026,114.8304,-1.757451,0.9896896,2.240038
32.55013,111.5245,-1.734438,0.9896896,2.240038
32.60175,107.9643,-1.72293,0.9898543,2.240038
32.6506,105.5485,-1.692246,0.9898543,2.240038
32.70185,103.7684,-1.665397,0.9896896,2.240038
32.75027,102.2427,-1.61937,0.9898543,2.240038
32.80026,100.5897,-1.696081,0.9896896,2.240038
32.85115,98.42819,-1.742108,0.9900191,2.240038
32.90098,121.1878,-1.772792,0.9896896,2.240038
32.95109,163.6555,-1.772792,0.9898543,2.240038
33.00039,171.9201,-1.7843,0.9898543,2.240038
33.05048,163.9097,-1.780465,0.9896896,2.240038
33.1012,158.188,-1.780465,0.9896896,2.240038
33.15109,153.4836,-1.799643,0.9896896,2.240038
33.20121,135.3013,-1.811149,0.9898543,2.246497
33.25083,133.5212,-1.788135,0.9896896,2.246497
33.30035,134.157,-1.761286,0.9898543,2.246497
33.35212,128.8167,-1.738273,0.9898543,2.246497
33.40046,122.8407,-1.692246,0.9896896,2.246497
33.4517,116.229,-1.642384,0.9898543,2.252956
33.50008,113.4317,-1.600192,0.9896896,2.252956
33.55055,109.1087,-1.554165,0.9898543,2.252956
33.60144,108.4729,-1.504302,0.9896896,2.259415
33.65108,106.82,-1.396906,0.9896896,2.259415
33.70195,104.4042,-1.542657,0.9898543,2.265874
33.74997,100.2083,-1.538822,0.9898543,2.265874
33.80074,118.2634,-1.592521,0.9896896,2.265874
33.85197,157.0437,-1.61937,0.9896896,2.272334
33.90046,170.7758,-1.661562,0.9898543,2.272334
33.95144,167.8513,-1.657725,0.9896896,2.272334
34.0002,163.7826,-1.673068,0.9898543,2.278793
34.05048,159.4595,-1.696081,0.9896896,2.278793
34.10174,142.9302,-1.726766,0.9898543,2.285252
34.151,138.2257,-1.703752,0.9898543,2.285252
34.20199,136.1913,-1.703752,0.9898543,2.291711
34.25071,136.4456,-1.72293,0.9896896,2.291711
34.30072,127.4181,-1.730602,0.9898543,2.291711
34.35172,119.5349,-1.726766,0.9898543,2.29817
34.40051,114.8304,-1.730602,0.9898543,2.29817
34.45172,111.1431,-1.903203,0.9898543,2.311089
34.50044,109.1087,-1.987586,0.9898543,2.311089
34.55001,106.9472,-2.037449,0.9896896,2.311089
34.6012,106.0571,-2.094983,0.9896896,2.317548
34.65,102.8784,-2.087311,0.9898543,2.324007
34.70124,105.8028,-2.121832,0.9898543,2.324007
34.75117,129.9611,-2.114161,0.9896896,2.324007
34.80124,168.6142,-2.129503,0.9898543,2.330466
34.85224,165.4355,-2.098819,0.9898543,2.330466
34.90098,163.1468,-2.091148,0.9898543,2.336925
34.95214,148.6519,-2.094983,0.9896896,2.336925
35.00008,140.3873,-2.098819,0.9898543,2.336925
35.05069,138.6072,-2.056627,0.9898543,2.343384
35.1022,139.2429,-2.052791,0.9898543,2.343384
35.15065,134.4113,-2.060462,0.9896896,2.343384
35.20216,123.4765,-2.068134,0.9898543,2.349844
35.2509,118.8991,-2.07197,0.9896896,2.349844
35.30046,113.4317,-2.060462,0.9896896,2.356302
35.35146,109.2358,-2.056627,0.9898543,2.356302
35.40024,108.4729,-2.048956,0.9896896,2.356302
35.45145,106.1843,-2.041284,0.9896896,2.362762
35.50022,102.3698,-2.07197,0.9898543,2.362762
35.55004,100.4626,-2.137175,0.9896896,2.362762
35.6011,96.52097,-2.117997,0.9898543,2.362762
35.65124,143.566,-2.129503,0.9898543,2.369221
35.70124,161.6211,-2.094983,0.9896896,2.369221
35.75117,167.0885,-2.041284,0.9896896,2.369221
35.80098,161.3668,-1.995257,0.9896896,2.37568
35.85164,160.6039,-1.903203,0.9898543,2.37568
35.90047,157.0437,-1.818821,0.9898543,2.37568
35.95141,136.5728,-1.684575,0.9898543,2.382139
36.00094,136.5728,-1.39307,0.9898543,2.382139
36.05094,136.9542,-1.193619,0.9896896,2.37568
36.10206,129.071,-1.047866,0.9898543,2.382139
36.15077,123.2222,-0.917457,0.9896896,2.382139
36.20106,120.2978,-0.7064987,0.9898543,2.382139
36.25044,113.686,-0.4610221,0.9898543,2.388598
36.30031,109.2358,-0.1848585,0.9898543,2.388598
36.35123,106.82,0.03760455,0.9896896,2.388598
36.4003,104.6585,0.1526735,0.9898543,2.388598
36.4515,101.7341,0.2217141,0.9898543,2.388598
36.50023,99.31824,0.2830825,0.9896896,2.388598
36.55023,97.79247,0.3099328,0.9898543,2.395057
36.60123,94.86804,0.3214388,0.9898543,2.395057
36.6501,124.1122,0.3176035,0.9896896,2.395057
36.70122,158.9509,0.3214388,0.9898543,2.395057
36.7501,164.5455,0.3214388,0.9898543,2.395057
36.80098,161.3668,0.306096,0.9896896,2.395057
36.8521,159.7138,0.2677411,0.9898543,2.401517
36.9011,149.5419,0.2255494,0.9898543,2.401517
36.9521,135.047,0.1756871,0.9898543,2.401517
37.0001,134.4113,0.1373307,0.9898543,2.401517
37.0501,139.8786,0.05678272,0.9898543,2.395057
37.10135,129.9611,-0.04677739,0.9896896,2.401517
37.15031,122.7136,-0.1580096,0.9898543,2.401517
37.20218,116.6105,-0.2615711,0.9898543,2.401517
37.25067,112.2874,-0.4341718,0.9896896,2.407976
37.30058,110.253,-0.5300626,0.9898543,2.401517
37.35178,106.1843,-0.7026633,0.9896896,2.407976
37.40127,103.5141,-0.7640331,0.9898543,2.401517
37.45123,101.8612,-0.8560872,0.9896896,2.401517
37.50022,97.53816,-0.9596487,0.9896896,2.401517
37.55022,95.88522,-1.308687,0.9898543,2.401517
37.6021,92.96081,-1.534987,0.9898543,2.401517
37.65034,93.72369,-1.696081,0.9896896,2.407976
37.70147,140.8958,-1.7843,0.9896896,2.401517
37.75135,167.0885,-1.880189,0.9898543,2.401517
37.80088,164.7998,-1.941559,0.9896896,2.401517
37.85166,163.6555,-2.187037,0.9898543,2.407976
37.90047,159.4595,-2.263748,0.9896896,2.401517
37.95169,138.0986,-2.294434,0.9896896,2.407976
38.00015,137.3357,-2.290597,0.9898543,2.401517
38.05093,138.2257,-2.282927,0.9898543,2.401517
38.10217,133.1398,-2.279091,0.9898543,2.401517
38.15094,123.9851,-2.256078,0.9896896,2.407976
38.20134,118.6448,-2.248406,0.9898543,2.401517
38.25079,110.3802,-2.240735,0.9898543,2.401517
38.30046,107.8372,-2.229229,0.9896896,2.401517
38.35169,106.82,-2.210051,0.9898543,2.407976
38.40101,105.6757,-2.17553,0.9898543,2.407976
38.45194,101.8612,-2.152516,0.9898543,2.407976
38.50073,96.77527,-2.156352,0.9896896,2.407976
38.55022,95.75809,-2.17553,0.9898543,2.401517
38.60162,95.37663,-2.279091,0.9898543,2.407976
38.65134,92.07076,-2.302105,0.9896896,2.401517
38.70146,92.07076,-2.394159,0.9898543,2.407976
38.75021,166.3256,-2.409502,0.9896896,2.401517
38.80022,167.9785,-2.421008,0.9898543,2.407976
38.85122,164.6726,-2.409502,0.9898543,2.401517
38.90132,162.0025,-2.421008,0.9896896,2.401517
38.95131,154.5007,-2.417172,0.9896896,2.401517
39.00121,135.8099,-2.417172,0.9896896,2.401517
39.05078,135.4285,-2.36731,0.9898543,2.401517
39.10172,136.8271,-2.325118,0.9898543,2.401517
39.15123,134.4113,-2.317448,0.9898543,2.401517
39.20202,124.748,-2.290597,0.9898543,2.401517
39.2513,117.119,-2.267584,0.9898543,2.401517
39.30093,114.3218,-2.256078,0.9896896,2.401517
39.35175,108.4729,-2.248406,0.9898543,2.401517
39.40039,104.5313,-2.233064,0.9896896,2.395057
39.45158,103.0055,-2.210051,0.9896896,2.401517
39.50046,100.7169,-2.187037,0.9898543,2.395057
39.55045,97.79247,-2.171694,0.9896896,2.401517
39.60146,95.88522,-2.164024,0.9896896,2.395057
39.65121,93.72369,-2.24457,0.9896896,2.395057
39.70122,92.7065,-2.248406,0.9896896,2.395057
39.75121,93.34225,-2.332789,0.9896896,2.395057
39.80133,157.1709,-2.390323,0.9896896,2.395057
39.85143,171.2844,-2.413337,0.9896896,2.395057
39.90121,167.0885,-2.401829,0.9898543,2.395057
39.95217,163.0197,-2.378816,0.9898543,2.395057
40.00071,160.731,-2.332789,0.9898543,2.395057
40.05146,139.2429,-2.309776,0.9896896,2.395057
40.10246,138.0986,-2.240735,0.9898543,2.388598
40.15042,136.6999,-2.164024,0.9896896,2.388598
40.20129,133.1398,-2.091148,0.9896896,2.388598
40.25078,124.1122,-2.022107,0.9898543,2.388598
40.30093,118.1362,-1.953065,0.9896896,2.388598
40.35233,110.253,-1.884025,0.9898543,2.395057
40.40054,107.8372,-1.734438,0.9898543,2.382139
40.45221,104.5313,-1.485124,0.9898543,2.382139
40.50101,102.6241,-1.281838,0.9898543,2.382139
40.55077,100.844,-1.105401,0.9896896,2.382139
40.6022,98.04675,-0.955812,0.9898543,2.388598
40.6507,93.72369,-0.8599226,0.9896896,2.382139
40.70192,92.57936,-0.6949926,0.9898543,2.382139
40.75066,91.18073,-0.6144446,0.9896896,2.382139
40.80045,89.90925,-0.5300626,0.9898543,2.37568
40.85206,130.9782,-0.4610221,0.9900191,2.37568
40.90041,170.7758,-0.3574606,0.9898543,2.382139
40.95204,168.3599,-0.2232148,0.9898543,2.382139
41.00048,163.274,-0.00842248,0.9898543,2.37568
41.05056,160.0953,0.07979623,0.9900191,2.37568
41.1017,156.9166,0.09513905,0.9898543,2.37568
41.15029,133.6484,0.1219879,0.9896896,2.37568
41.20242,132.3769,0.1756871,0.9898543,2.37568
41.25029,135.4285,0.1871931,0.9896896,2.369221
41.30028,129.1982,0.1948638,0.9896896,2.369221
41.35153,120.1706,0.2063713,0.9896896,2.369221
41.40141,111.5245,0.2063713,0.9896896,2.369221
41.45192,109.1087,0.1756871,0.9898543,2.369221
41.50061,105.6757,0.1603442,0.9896896,2.369221
41.5504,102.7513,0.1450014,0.9896896,2.369221
41.60175,101.2255,0.1219879,0.9898543,2.369221
41.6504,99.57254,0.0913037,0.9898543,2.362762
41.70241,94.86804,0.04527667,0.9898543,2.362762
41.75115,93.85085,-0.1234901,0.9898543,2.362762
41.80112,92.32506,-0.2692418,0.9898543,2.362762
41.8524,92.57936,-0.4610221,0.9898543,2.362762
41.90053,138.48,-0.5991032,0.9896896,2.362762
41.95165,171.2844,-0.7026633,0.9898543,2.362762
42.00115,166.4527,-0.7601978,0.9898543,2.362762
42.05066,160.8582,-0.8330737,0.9898543,2.356302
42.10145,154.8822,-0.8906082,0.9898543,2.356302
42.15141,135.4285,-0.9864976,0.9898543,2.356302
42.2014,132.6312,-1.051703,0.9896896,2.356302
42.25089,131.1054,-1.093893,0.9898543,2.356302
42.3004,130.8511,-1.147592,0.9898543,2.356302
42.35165,120.9335,-1.20129,0.9898543,2.356302
42.40144,112.5417,-1.266495,0.9898543,2.356302
42.45252,108.8544,-1.293344,0.9901838,2.356302
42.5004,105.93,-1.312522,0.9898543,2.349844
42.55063,103.7684,-1.308687,0.9898543,2.349844
42.60245,102.6241,-1.308687,0.9898543,2.349844
42.65096,98.80965,-1.316357,0.9898543,2.349844
42.70168,98.04675,-1.339371,0.9898543,2.349844
42.75044,94.74089,-1.350878,0.9896896,2.343384
42.80044,93.978,-1.481289,0.9898543,2.349844
42.85143,91.05358,-1.534987,0.9898543,2.349844
42.90095,98.1739,-1.630876,0.9898543,2.343384
42.95218,111.7788,-1.676903,0.9898543,2.349844
43.00084,170.14,-1.711424,0.9896896,2.349844
43.05135,165.9441,-1.734438,0.9898543,2.343384
43.10169,162.7654,-1.772792,0.9898543,2.343384
43.1504,158.3152,-1.837998,0.9900191,2.343384
43.2014,143.8203,-1.899368,0.9898543,2.343384
43.25123,132.3769,-1.899368,0.9898543,2.343384
43.30093,134.5384,-1.895532,0.9896896,2.343384
43.35196,134.2841,-1.895532,0.9898543,2.336925
43.40068,120.1706,-1.895532,0.9898543,2.336925
43.45168,116.3562,-1.891697,0.9898543,2.336925
43.50093,111.0159,-1.884025,0.9898543,2.343384
43.55069,106.5657,-1.880189,0.9898543,2.336925
43.60048,103.8956,-1.868683,0.9896896,2.336925
43.65164,101.2255,-1.864848,0.9898543,2.336925
43.70043,99.57254,-1.861011,0.9898543,2.336925
43.75143,97.79247,-1.864848,0.9896896,2.336925
43.80113,95.63092,-1.868683,0.9898543,2.336925
43.85093,93.46941,-1.922381,0.9898543,2.330466
43.90161,91.81647,-1.945395,0.9900191,2.336925
43.95086,94.48659,-2.0106,0.9898543,2.330466
44.00089,162.6383,-2.037449,0.9896896,2.336925
44.05089,173.3188,-2.083476,0.9898543,2.330466
44.10126,167.3428,-2.07964,0.9898543,2.330466
44.15239,160.9853,-2.07964,0.9898543,2.336925
44.20064,151.5763,-2.083476,0.9898543,2.336925
44.25151,136.1913,-2.075805,0.9898543,2.330466
44.30076,133.6484,-2.045121,0.9898543,2.330466
44.35052,133.5212,-2.037449,0.9898543,2.330466
44.40175,125.638,-2.025943,0.9898543,2.330466
44.45043,118.8991,-2.014435,0.9898543,2.330466
44.50129,116.229,-1.999092,0.9898543,2.330466
44.5511,107.9643,-1.995257,0.9898543,2.324007
44.60143,104.1499,-1.987586,0.9898543,2.330466
44.65269,103.2598,-1.968408,0.9900191,2.330466
44.7006,101.4798,-1.956902,0.9898543,2.324007
44.75126,99.06393,-1.945395,0.9898543,2.330466
44.80105,96.64812,-1.945395,0.9898543,2.324007
44.85088,94.86804,-1.956902,0.9898543,2.324007
44.90151,93.2151,-1.987586,0.9898543,2.324007
44.95104,91.56216,-2.0106,0.9898543,2.330466
45.00126,94.99519,-2.07964,0.9896896,2.324007
45.05124,156.2808,-2.102654,0.9898543,2.330466
45.10101,170.5215,-2.121832,0.9896896,2.324007
45.15203,163.9097,-2.110325,0.9898543,2.324007
45.20076,157.8066,-2.114161,0.9898543,2.324007
45.25076,151.7035,-2.102654,0.9898543,2.324007
45.30136,131.614,-2.091148,0.9896896,2.324007
45.35126,130.3425,-2.014435,0.9898543,2.324007
45.40226,129.9611,-1.999092,0.9898543,2.324007
45.45088,126.7823,-1.964573,0.9898543,2.324007
45.50147,118.8991,-1.926216,0.9898543,2.324007
45.55115,112.6688,-1.880189,0.9896896,2.317548
45.60126,106.82,-1.803478,0.9898543,2.324007
45.6525,105.1671,-1.676903,0.9900191,2.324007
45.70114,104.5313,-1.473617,0.9898543,2.324007
45.75086,101.4798,-1.231976,0.9896896,2.317548
45.80155,97.9196,-1.055538,0.9898543,2.317548
45.85143,95.24948,-0.9327984,0.9896896,2.317548
45.90208,93.72369,-0.8215662,0.9898543,2.317548
45.95123,92.83366,-0.7103354,0.9896896,2.317548
46.00125,91.18073,-0.5569115,0.9898543,2.317548
46.05124,101.4798,-0.4571853,0.9898543,2.317548
46.10096,147.6347,-0.3114335,0.9898543,2.317548
46.15211,168.9957,-0.1886953,0.9896896,2.324007
46.201,162.7654,0.003084986,0.9898543,2.317548
46.25175,156.2808,0.1258233,0.9898543,2.317548
46.30162,152.0849,0.1756871,0.9898543,2.317548
46.35138,131.7411,0.2293848,0.9896896,2.317548
46.40155,130.0882,0.3099328,0.9898543,2.317548
46.45155,130.4697,0.3713012,0.9898543,2.317548
46.50167,127.6724,0.4250004,0.9896896,2.317548
46.55055,118.8991,0.4940409,0.9898543,2.317548
46.60067,113.8132,0.5707522,0.9898543,2.317548
46.65204,109.2358,0.632122,0.9900191,2.317548
46.70062,106.82,0.670477,0.9898543,2.317548
46.75155,101.9884,0.7471896,0.9898543,2.317548
46.80154,101.2255,0.7702031,0.9898543,2.317548
46.8515,99.95398,0.7702031,0.9898543,2.317548
46.90274,96.77527,0.7203407,0.9898543,2.317548
46.95123,95.63092,0.6359574,0.9898543,2.317548
47.00122,93.46941,0.5822597,0.9898543,2.311089
47.05124,91.94361,0.505547,0.9896896,2.317548
47.10117,154.755,0.4710274,0.9898543,2.317548
47.15187,172.1744,0.4288357,0.9898543,2.317548
47.2015,167.9785,0.3751366,0.9898543,2.317548
47.2515,154.6279,0.306096,0.9900191,2.311089
47.30149,150.3048,0.2370555,0.9898543,2.311089
47.35075,129.5796,0.1603442,0.9898543,2.311089
47.40187,127.6724,0.083633,0.9898543,2.311089
47.45175,127.7995,-0.01225783,0.9898543,2.311089
47.5015,131.1054,-0.1311608,0.9898543,2.311089
47.55117,115.8476,-0.2308855,0.9898543,2.311089
47.60149,109.363,-0.3344471,0.9900191,2.311089
47.65249,108.4729,-0.4610221,0.9898543,2.311089
47.70124,105.6757,-0.5377333,0.9898543,2.304629
47.75066,99.57254,-0.6182799,0.9898543,2.311089
47.80066,98.80965,-0.6719791,0.9898543,2.311089
47.85175,98.04675,-0.7256768,0.9900191,2.311089
47.90274,96.13953,-0.7755392,0.9898543,2.311089
47.95124,94.61374,-0.8829361,0.9898543,2.311089
48.001,92.7065,-1.021017,0.9898543,2.311089
48.05135,92.57936,-1.243482,0.9898543,2.311089
48.10134,125.8923,-1.366221,0.9898543,2.304629
48.15183,171.9201,-1.442933,0.9898543,2.304629
48.20066,169.3771,-1.546493,0.9898543,2.304629
48.25066,158.9509,-1.615535,0.9898543,2.304629
48.30145,153.3564,-1.7843,0.9898543,2.311089
48.35166,132.7583,-1.853341,0.9898543,2.311089
48.40267,129.5796,-1.857176,0.9898543,2.304629
48.45093,128.6896,-1.849505,0.9898543,2.304629
48.50129,127.6724,-1.853341,0.9898543,2.304629
48.55162,120.1706,-1.849505,0.9898543,2.304629
48.60166,111.3974,-1.84567,0.9898543,2.304629
48.65233,109.1087,-1.834162,0.9898543,2.304629
48.70074,106.4386,-1.826492,0.9898543,2.304629
48.75116,102.6241,-1.807313,0.9898543,2.304629
48.80099,99.57254,-1.799643,0.9898543,2.29817
48.85089,97.66531,-1.795807,0.9898543,2.304629
48.90174,96.13953,-1.799643,0.9898543,2.304629
48.95163,94.10515,-1.803478,0.9898543,2.304629
49.00134,91.94361,-1.872519,0.9898543,2.304629
49.05127,90.92643,-1.880189,0.9898543,2.29817
49.10074,96.77527,-1.91471,0.9898543,2.304629
49.1526,143.1845,-1.937724,0.9896896,2.29817
49.20089,170.5215,-1.964573,0.9896896,2.29817
49.25161,157.298,-1.960737,0.9898543,2.29817
49.30149,155.3908,-1.964573,0.9896896,2.304629
49.35082,151.5763,-1.964573,0.9898543,2.29817
49.40274,131.2325,-1.964573,0.9898543,2.29817
49.45108,129.1982,-1.960737,0.9896896,2.29817
49.50111,129.071,-1.956902,0.9898543,2.304629
49.55111,126.0195,-1.953065,0.9896896,2.29817
49.60115,116.229,-1.945395,0.9896896,2.29817
49.65186,111.7788,-1.937724,0.9900191,2.29817
49.70186,109.9987,-1.926216,0.9898543,2.29817
49.75112,101.7341,-1.922381,0.9896896,2.29817
49.80173,100.844,-1.899368,0.9900191,2.29817
49.85136,98.42819,-1.884025,0.9900191,2.29817
49.90248,96.90242,-1.868683,0.9898543,2.29817
49.95084,94.99519,-1.872519,0.9898543,2.291711
50.00115,92.96081,-1.891697,0.9898543,2.291711
50.05115,91.18073,-1.933889,0.9896896,2.29817
50.10115,89.5278,-1.960737,0.9898543,2.29817
50.15207,96.13953,-1.995257,0.9900191,2.29817
50.20105,160.0953,-2.048956,0.9898543,2.291711
50.25188,168.6142,-2.07964,0.9898543,2.291711
50.30187,160.0953,-2.07197,0.9900191,2.29817
50.35077,149.9234,-2.07964,0.9896896,2.29817
50.40239,146.4904,-2.07964,0.9900191,2.291711
50.4519,127.9267,-2.060462,0.9898543,2.291711
50.50188,125.638,-1.995257,0.9898543,2.291711
50.5511,126.7823,-1.995257,0.9898543,2.291711
50.60139,122.5864,-1.983751,0.9898543,2.291711
50.6526,113.8132,-1.972243,0.9898543,2.291711
50.70137,111.6517,-1.968408,0.9898543,2.291711
50.7511,103.6413,-1.953065,0.9898543,2.291711
50.8016,102.2427,-1.941559,0.9898543,2.291711
50.85163,99.19109,-1.918546,0.9898543,2.285252
50.90289,98.30104,-1.907038,0.9896896,2.291711
50.95162,96.52097,-1.903203,0.9898543,2.291711
51.0011,94.99519,-1.891697,0.9898543,2.291711
51.0511,92.96081,-1.937724,0.9898543,2.285252
51.10085,92.32506,-1.94923,0.9898543,2.285252
51.15185,89.90925,-1.979915,0.9898543,2.285252
51.20136,136.8271,-2.006764,0.9898543,2.285252
51.2511,174.3359,-2.060462,0.9900191,2.285252
51.30173,168.4871,-2.064297,0.9898543,2.285252
51.35123,158.4424,-2.060462,0.9898543,2.285252
51.4026,151.0677,-2.052791,0.9898543,2.278793
51.4516,143.3117,-2.048956,0.9898543,2.285252
51.50134,126.0195,-1.987586,0.9898543,2.285252
51.55134,124.748,-1.968408,0.9898543,2.285252
51.60176,127.2909,-1.960737,0.9898543,2.285252
51.65257,118.772,-1.953065,0.9898543,2.285252
51.7014,113.9403,-1.945395,0.9898543,2.285252
51.75109,109.4901,-1.930052,0.9898543,2.278793
51.80154,104.9128,-1.907038,0.9898543,2.278793
51.85149,100.5897,-1.884025,0.9898543,2.285252
51.90248,97.9196,-1.864848,0.9900191,2.278793
51.95185,96.90242,-1.841834,0.9900191,2.285252
52.00101,94.99519,-1.822656,0.9896896,2.278793
52.05101,94.48659,-1.7843,0.9898543,2.278793
52.10185,94.86804,-1.791971,0.9900191,2.278793
52.15204,91.05358,-1.734438,0.9900191,2.278793
52.20152,95.75809,-1.661562,0.9896896,2.278793
52.2514,156.1537,-1.462111,0.9898543,2.278793
52.30139,169.7586,-1.297179,0.9896896,2.278793
52.35134,157.298,-1.093893,0.9896896,2.278793
52.40271,151.8306,-0.9826623,0.9898543,2.278793
52.45097,147.5076,-0.8982789,0.9898543,2.278793
52.50101,128.8167,-0.8484165,0.9898543,2.278793
52.55101,126.0195,-0.6297874,0.9898543,2.278793
52.60089,124.4937,-0.4610221,0.9898543,2.272334
52.65272,125.1294,-0.2692418,0.9898543,2.278793
52.70155,118.8991,-0.1081472,0.9900191,2.272334
52.75163,111.1431,0.01459104,0.9898543,2.278793
52.80093,107.9643,0.09513905,0.9898543,2.278793
52.85147,104.1499,0.1987006,0.9898543,2.272334
52.90248,102.2427,0.2715765,0.9898543,2.272334
52.95113,99.57254,0.3252742,0.9898543,2.272334
53.00207,98.30104,0.3789734,0.9898543,2.272334
53.05086,98.9368,0.3789734,0.9898543,2.272334
53.10088,96.77527,0.3636305,0.9898543,2.272334
53.15209,93.72369,0.340617,0.9896896,2.272334
53.20156,96.39381,0.2984253,0.9898543,2.272334
53.25113,165.3084,0.2792472,0.9898543,2.272334
53.30109,171.2844,0.2255494,0.9898543,2.272334
53.35109,156.5351,0.1948638,0.9896896,2.272334
53.40294,151.9578,0.12966,0.9898543,2.272334
53.45138,140.6415,0.02993385,0.9900191,2.272334
53.50121,127.1638,-0.08129837,0.9900191,2.265874
53.55121,124.748,-0.1388315,0.9898543,2.272334
53.60124,126.0195,-0.2500637,0.9898543,2.265874
53.65213,123.2222,-0.3958169,0.9898543,2.265874
53.701,115.8476,-0.4801989,0.9898543,2.265874
53.75113,111.1431,-0.6106092,0.9896896,2.265874
53.80184,107.5829,-0.6566363,0.9898543,2.265874
53.85134,101.8612,-0.6834852,0.9898543,2.265874
53.90261,100.2083,-0.733349,0.9898543,2.265874
53.95213,98.80965,-0.779376,0.9900191,2.265874
54.00113,97.9196,-0.8292384,0.9898543,2.265874
54.05193,96.01237,-0.917457,0.9898543,2.265874
54.10213,95.37663,-1.078552,0.9898543,2.265874
54.15202,92.57936,-1.239646,0.9898543,2.265874
54.20159,110.5073,-1.362385,0.9898543,2.265874
54.25113,171.2844,-1.42759,0.9898543,2.265874
54.30166,165.817,-1.500466,0.9898543,2.265874
54.35171,155.7722,-1.546493,0.9898543,2.265874
54.40218,150.8134,-1.657725,0.9900191,2.265874
54.45198,132.6312,-1.772792,0.9900191,2.265874
54.502,129.1982,-1.795807,0.9898543,2.265874
54.55169,127.5452,-1.7843,0.9896896,2.265874
54.60186,127.5452,-1.7843,0.9898543,2.259415
54.65313,116.6105,-1.780465,0.9898543,2.259415
54.702,115.7204,-1.772792,0.9898543,2.265874
54.752,109.8716,-1.765122,0.9898543,2.265874
54.80199,104.9128,-1.749779,0.9898543,2.259415
54.85169,103.387,-1.730602,0.9900191,2.259415
54.903,100.2083,-1.72293,0.9898543,2.259415
54.95171,99.57254,-1.715259,0.9898543,2.259415
55.00154,97.15671,-1.703752,0.9898543,2.259415
55.05135,94.99519,-1.72293,0.9898543,2.259415
55.10112,92.96081,-1.772792,0.9898543,2.259415
55.15251,91.05358,-1.807313,0.9898543,2.259415
55.20137,98.42819,-1.837998,0.9900191,2.259415
55.25125,159.3324,-1.849505,0.9898543,2.259415
55.30112,166.5799,-1.861011,0.9898543,2.259415
55.35112,159.7138,-1.853341,0.9898543,2.259415
55.40249,152.5935,-1.857176,0.9898543,2.259415
55.45212,141.6587,-1.853341,0.9900191,2.259415
55.50212,128.4353,-1.834162,0.9896896,2.259415
55.55212,127.6724,-1.807313,0.9900191,2.259415
55.60204,127.9267,-1.803478,0.9898543,2.252956
55.65295,124.748,-1.795807,0.9900191,2.252956
55.70174,118.0091,-1.788135,0.9898543,2.259415
55.75174,111.0159,-1.780465,0.9898543,2.252956
55.80174,106.3114,-1.776629,0.9898543,2.252956
55.8512,103.1327,-1.768957,0.9898543,2.259415
55.90249,101.4798,-1.761286,0.9898543,2.252956
55.95124,98.6825,-1.761286,0.9896896,2.252956
56.00112,97.79247,-1.749779,0.9898543,2.259415
56.05129,97.28386,-1.745944,0.9898543,2.252956
56.10178,94.86804,-1.776629,0.9898543,2.252956
56.15257,93.2151,-1.799643,0.9898543,2.252956
56.20208,91.81647,-1.849505,0.9898543,2.252956
56.25149,109.1087,-1.864848,0.9900191,2.252956
56.30136,171.6658,-1.880189,0.9900191,2.252956
56.35312,169.8857,-1.895532,0.9896896,2.252956
56.40281,160.3496,-1.891697,0.9898543,2.252956
56.45105,153.7379,-1.895532,0.9900191,2.252956
56.50219,145.6003,-1.895532,0.9898543,2.252956
56.55211,129.5796,-1.868683,0.9898543,2.252956
56.60207,128.0538,-1.837998,0.9896896,2.252956
56.65278,130.5968,-1.837998,0.9898543,2.252956
56.70207,127.5452,-1.830327,0.9896896,2.246497
56.75194,116.4833,-1.822656,0.9898543,2.252956
56.80194,111.7788,-1.814984,0.9898543,2.246497
56.85293,106.3114,-1.803478,0.9898543,2.246497
56.90272,102.8784,-1.791971,0.9898543,2.252956
56.95144,101.3526,-1.780465,0.9898543,2.252956
57.00144,99.95398,-1.768957,0.9898543,2.246497
57.05103,98.42819,-1.768957,0.9898543,2.252956
57.10319,95.75809,-1.768957,0.9898543,2.246497
57.15306,94.10515,-1.807313,0.9898543,2.246497
57.20131,92.19792,-1.818821,0.9896896,2.246497
57.25231,91.30788,-1.872519,0.9900191,2.246497
57.30172,123.9851,-1.884025,0.9898543,2.246497
57.35269,172.4287,-1.903203,0.9900191,2.246497
57.40268,170.3943,-1.903203,0.9898543,2.246497
57.45129,157.6795,-1.899368,0.9900191,2.246497
57.50146,151.4492,-1.899368,0.9898543,2.246497
57.55209,134.6656,-1.899368,0.9898543,2.240038
57.60208,128.0538,-1.864848,0.9898543,2.246497
57.65279,127.9267,-1.834162,0.9900191,2.246497
57.70208,129.5796,-1.830327,0.9898543,2.246497
57.75156,120.0435,-1.818821,0.9898543,2.246497
57.80161,114.1946,-1.807313,0.9898543,2.246497
57.85265,109.8716,-1.791971,0.9898543,2.246497
57.90308,104.5313,-1.776629,0.9898543,2.240038
57.95183,103.7684,-1.753616,0.9898543,2.240038
58.00169,101.4798,-1.730602,0.9898543,2.246497
58.05207,99.82683,-1.707589,0.9898543,2.246497
58.10331,98.04675,-1.634711,0.9898543,2.240038
58.15306,95.63092,-1.558,0.9898543,2.240038
58.2018,93.85085,-1.542657,0.9898543,2.246497
58.25186,93.08795,-1.481289,0.9900191,2.240038
58.3016,91.81647,-1.377727,0.9898543,2.240038
58.35285,137.3357,-1.231976,0.9898543,2.246497
58.40268,172.8101,-1.105401,0.9898543,2.240038
58.45115,168.4871,-1.013346,0.9900191,2.246497
58.50215,160.8582,-0.9059496,0.9898543,2.240038
58.55206,153.4836,-0.7141708,0.9900191,2.246497
58.60318,138.8615,-0.5607468,0.9896896,2.233578
58.65301,130.3425,-0.3651313,0.9898543,2.240038
58.70118,129.9611,-0.161845,0.9898543,2.240038
58.75143,130.3425,-0.02376388,0.9898543,2.240038
58.80231,121.6964,0.083633,0.9898543,2.240038
58.85255,114.5761,0.1795224,0.9898543,2.240038
58.90253,109.8716,0.2447276,0.9898543,2.240038
58.95135,106.0571,0.3176035,0.9898543,2.240038
59.00206,104.1499,0.3828087,0.9898543,2.240038
59.05131,102.6241,0.4633553,0.9898543,2.240038
59.10318,100.3354,0.5937657,0.9900191,2.240038
59.15255,98.6825,0.6743137,0.9898543,2.240038
59.20118,96.01237,0.7548603,0.9898543,2.240038
59.25118,94.10515,0.7433543,0.9900191,2.240038
59.30168,93.34225,0.7203407,0.9898543,2.240038
59.35268,102.2427,0.6858197,0.9898543,2.240038
59.40268,150.3048,0.6551356,0.9898543,2.240038
59.45142,168.1057,0.6052732,0.9900191,2.240038
59.50227,160.8582,0.5822597,0.9898543,2.240038
59.55232,152.3392,0.5477387,0.9898543,2.240038
59.60268,142.9302,0.4863688,0.9898543,2.240038
59.65268,129.8339,0.4671907,0.9900191,2.240038
59.70214,126.7823,0.4518493,0.9898543,2.240038
59.75142,128.0538,0.4134929,0.9896896,2.233578
59.80143,127.9267,0.3674659,0.9898543,2.240038
59.85267,115.339,0.3329463,0.9898543,2.233578
59.90331,112.1602,0.2869179,0.9898543,2.233578
59.95182,106.4386,0.2562337,0.9898543,2.240038
60.0014,104.4042,0.2293848,0.9896896,2.233578
60.0513,100.5897,0.1756871,0.9898543,2.233578
60.10326,99.06393,0.1143172,0.9896896,2.233578
60.15256,98.42819,0.04911202,0.9898543,2.233578
60.2012,96.52097,-0.02759923,0.9898543,2.240038
60.25217,94.74089,-0.2730772,0.9898543,2.233578
60.30219,94.10515,-0.5032123,0.9898543,2.233578
60.35301,97.28386,-0.6758144,0.9898543,2.233578
60.40294,163.5283,-0.7563624,0.9898543,2.240038
60.45131,172.3016,-0.8369091,0.9900191,2.233578
60.50216,165.817,-0.9481413,0.9898543,2.233578
60.55142,157.4252,-1.254989,0.9896896,2.233578
60.60318,151.9578,-1.469781,0.9900191,2.240038
60.65317,132.6312,-1.561836,0.9898543,2.233578
60.70167,130.724,-1.577178,0.9898543,2.233578
60.75201,131.1054,-1.592521,0.9900191,2.233578
60.80167,131.1054,-1.623205,0.9898543,2.233578
60.85254,117.8819,-1.627041,0.9898543,2.233578
60.90255,112.2874,-1.623205,0.9896896,2.233578
60.95163,107.5829,-1.61937,0.9898543,2.233578
61.00165,104.9128,-1.607863,0.9898543,2.233578
61.05154,102.6241,-1.588684,0.9900191,2.233578
61.10229,99.82683,-1.584849,0.9900191,2.233578
61.15317,98.42819,-1.592521,0.9898543,2.233578
61.20193,97.9196,-1.584849,0.9898543,2.233578
61.25166,94.10515,-1.634711,0.9900191,2.227119
61.30229,93.72369,-1.650054,0.9898543,2.233578
61.35279,94.86804,-1.715259,0.9898543,2.227119
61.40267,150.5591,-1.738273,0.9896896,2.233578
61.45142,170.9029,-1.753616,0.9898543,2.227119
61.50129,170.0129,-1.761286,0.9900191,2.233578
61.55205,162.0025,-1.765122,0.9898543,2.233578
61.60345,157.8066,-1.765122,0.9898543,2.227119
61.65345,139.2429,-1.768957,0.9898543,2.227119
61.70205,133.0126,-1.753616,0.9898543,2.233578
61.75204,132.6312,-1.742108,0.9898543,2.227119
61.80216,135.047,-1.734438,0.9896896,2.227119
61.85341,123.8579,-1.726766,0.9900191,2.227119
61.90275,116.6105,-1.707589,0.9898543,2.227119
61.95137,111.0159,-1.699917,0.9898543,2.227119
62.00191,106.3114,-1.696081,0.9898543,2.233578
62.05145,102.6241,-1.680738,0.9900191,2.227119
62.10258,101.4798,-1.661562,0.9898543,2.227119
62.15329,99.95398,-1.650054,0.9898543,2.227119
62.20179,98.42819,-1.642384,0.9898543,2.227119
62.25195,95.75809,-1.634711,0.9900191,2.227119
62.30191,94.10515,-1.688411,0.9900191,2.227119
62.35254,92.96081,-1.715259,0.9898543,2.227119
62.40291,96.52097,-1.7843,0.9898543,2.227119
62.45166,136.9542,-1.799643,0.9900191,2.227119
62.50153,169.7586,-1.826492,0.9898543,2.227119
62.55246,164.4183,-1.830327,0.9898543,2.227119
62.60266,159.5867,-1.826492,0.9898543,2.227119
62.65266,155.7722,-1.818821,0.9900191,2.22066
62.7014,142.0402,-1.814984,0.9898543,2.227119
62.75179,131.4868,-1.780465,0.9898543,2.22066
62.80195,130.9782,-1.765122,0.9898543,2.22066
62.85317,130.724,-1.757451,0.9898543,2.22066
62.90316,124.3665,-1.753616,0.9898543,2.22066
62.9518,115.7204,-1.749779,0.9896896,2.22066
63.00154,110.7616,-1.738273,0.9898543,2.227119
63.05253,106.82,-1.715259,0.9898543,2.22066
63.10253,104.4042,-1.703752,0.9898543,2.22066
63.153,103.0055,-1.688411,0.9898543,2.227119
63.20145,100.2083,-1.673068,0.9898543,2.22066
63.25253,98.80965,-1.657725,0.9898543,2.22066
63.30228,96.90242,-1.650054,0.9898543,2.22066
63.35279,94.86804,-1.703752,0.9900191,2.22066
63.4034,92.83366,-1.730602,0.9896896,2.22066
63.45216,92.57936,-1.795807,0.9900191,2.22066
63.50216,148.2705,-1.811149,0.9898543,2.22066
63.55149,173.1916,-1.834162,0.9896896,2.22066
63.60342,170.2672,-1.837998,0.9898543,2.22066
63.65342,159.7138,-1.830327,0.9900191,2.22066
63.7021,157.5523,-1.814984,0.9898543,2.22066
63.752,142.5488,-1.811149,0.9898543,2.22066
63.80193,133.5212,-1.7843,0.9898543,2.22066
63.85308,132.3769,-1.749779,0.9898543,2.22066
63.9024,132.2497,-1.745944,0.9898543,2.22066
63.95189,123.4765,-1.726766,0.9898543,2.22066
64.00153,117.2462,-1.688411,0.9898543,2.22066
64.05218,112.0331,-1.646219,0.9898543,2.22066
64.10342,105.4214,-1.588684,0.9898543,2.214201
64.15298,103.1327,-1.508138,0.9898543,2.214201
64.20244,101.3526,-1.370057,0.9896896,2.22066
64.25217,99.06393,-1.216633,0.9898543,2.22066
64.30206,97.41101,-1.078552,0.9898543,2.214201
64.35302,95.37663,-0.9826623,0.9898543,2.214201
64.40353,93.46941,-0.9596487,0.9898543,2.214201
64.45203,91.05358,-0.8982789,0.9898543,2.214201
64.50253,91.43503,-0.8637579,0.9898543,2.214201
64.55225,122.9679,-0.7563624,0.9898543,2.22066
64.60252,172.4287,-0.6221167,0.9898543,2.214201
64.65353,167.0885,-0.4380086,0.9896896,2.214201
64.70216,165.4355,-0.08129837,0.9898543,2.214201
64.75202,152.7207,0.04911202,0.9898543,2.214201
64.80192,136.9542,0.083633,0.9898543,2.214201
64.85304,131.8683,0.1565089,0.9900191,2.214201
64.90277,132.2497,0.2408908,0.9898543,2.214201
64.95242,131.614,0.3022607,0.9900191,2.214201
65.00175,128.0538,0.3521231,0.9898543,2.214201
65.05152,116.9919,0.3904794,0.9898543,2.214201
65.10277,111.6517,0.4365065,0.9898543,2.214201
65.15352,107.9643,0.4786981,0.9898543,2.207742
65.20152,103.2598,0.5362326,0.9798071,2.214201
65.25252,102.497,0.5745875,0.9798071,2.214201
65.30152,100.3354,0.6244499,0.9798071,2.214201
65.3526,97.79247,0.6436281,0.9798071,2.214201
65.40302,96.64812,0.6129439,0.9799718,2.214201
65.45177,93.72369,0.5362326,0.9798071,2.214201
65.50152,92.32506,0.4786981,0.9798071,2.214201
65.55252,91.81647,0.4480139,0.9798071,2.214201
65.60352,144.0746,0.4211636,0.9798071,2.214201
65.65329,168.2328,0.3674659,0.9798071,2.207742
65.70206,167.7242,0.3252742,0.9799718,2.214201
65.75206,152.3392,0.2677411,0.9798071,2.207742
65.80206,145.6003,0.2217141,0.9799718,2.207742
65.85329,129.1982,0.1411661,0.9798071,2.207742
65.90334,128.6896,0.1143172,0.9799718,2.207742
65.95205,127.9267,0.03760455,0.9798071,2.207742
66.0015,126.2737,-0.03527135,0.9799718,2.214201
66.05253,114.8304,-0.1234901,0.9798071,2.207742
66.10353,112.9231,-0.2002013,0.9798071,2.207742
66.15328,108.3458,-0.2922554,0.9798071,2.207742
66.20251,104.7856,-0.3804741,0.9798071,2.207742
66.25176,103.2598,-0.4418439,0.9799718,2.207742
66.30153,103.6413,-0.5492394,0.9799718,2.207742
66.35351,99.31824,-0.6528009,0.9798071,2.207742
66.40353,97.02956,-0.7525257,0.9798071,2.207742
66.45251,95.24948,-0.9519767,0.9798071,2.207742
66.50251,94.10515,-1.132249,0.9798071,2.207742
66.55251,93.72369,-1.373892,0.9798071,2.207742
66.60329,152.7207,-1.469781,0.9798071,2.207742
66.65327,170.14,-1.538822,0.9798071,2.207742
66.70201,168.4871,-1.588684,0.9798071,2.207742
66.75176,160.4767,-1.692246,0.9798071,2.207742
66.8018,156.5351,-1.84567,0.9799718,2.207742
66.85306,137.7171,-1.876354,0.9798071,2.207742
66.90305,132.6312,-1.884025,0.9799718,2.207742
66.95151,131.1054,-1.880189,0.9798071,2.207742
67.00263,131.7411,-1.887861,0.9799718,2.207742
67.05231,121.1878,-1.884025,0.9799718,2.207742
67.10326,115.5933,-1.872519,0.9798071,2.207742
67.15313,109.4901,-1.868683,0.9799718,2.207742
67.20271,105.5485,-1.868683,0.9798071,2.207742
67.25231,104.4042,-1.864848,0.9799718,2.207742
67.30232,102.1155,-1.853341,0.9798071,2.207742
67.35323,100.0811,-1.84567,0.9799718,2.207742
67.40295,96.77527,-1.841834,0.9798071,2.207742
67.4528,95.37663,-1.841834,0.9798071,2.207742
67.50252,94.35944,-1.907038,0.9798071,2.207742
67.55248,92.57936,-1.918546,0.9798071,2.201283
67.60358,90.16354,-1.937724,0.9796425,2.207742
67.65263,121.6964,-1.937724,0.9798071,2.207742
67.70263,161.8754,-1.94923,0.9799718,2.207742
67.7525,168.3599,-1.953065,0.9798071,2.207742
67.8023,162.7654,-1.94923,0.9798071,2.201283
67.85349,156.6623,-1.94923,0.9798071,2.207742
67.90365,141.913,-1.94923,0.9798071,2.201283
67.95229,134.0298,-1.937724,0.9798071,2.207742
68.00225,133.0126,-1.910875,0.9798071,2.207742
68.05262,132.7583,-1.918546,0.9798071,2.201283
68.10265,125.8923,-1.910875,0.9798071,2.207742
68.15263,117.3734,-1.903203,0.9798071,2.201283
68.20245,114.5761,-1.895532,0.9798071,2.201283
68.25247,107.5829,-1.891697,0.9799718,2.201283
68.30263,105.8028,-1.876354,0.9798071,2.207742
68.35359,103.0055,-1.861011,0.9798071,2.207742
68.40321,100.9712,-1.841834,0.9798071,2.201283
68.4524,98.6825,-1.826492,0.9799718,2.201283
68.50249,96.77527,-1.837998,0.9799718,2.201283
68.55248,94.86804,-1.834162,0.9798071,2.201283
68.60258,92.7065,-1.891697,0.9799718,2.201283
68.65379,91.18073,-1.899368,0.9799718,2.201283
68.70251,91.56216,-1.922381,0.9799718,2.201283
68.75251,138.0986,-1.918546,0.9798071,2.201283
68.80242,172.683,-1.922381,0.9798071,2.194824
68.85295,165.0541,-1.91471,0.9798071,2.201283
68.90361,159.5867,-1.922381,0.9799718,2.194824
68.9525,152.7207,-1.91471,0.9798071,2.201283
69.0025,132.504,-1.91471,0.9798071,2.201283
69.05228,130.2153,-1.891697,0.9798071,2.194824
69.10349,133.9027,-1.880189,0.9798071,2.201283
69.15287,129.7068,-1.872519,0.9798071,2.194824
69.20161,122.8407,-1.861011,0.9799718,2.201283
69.25212,112.2874,-1.849505,0.9799718,2.201283
69.30251,108.6001,-1.849505,0.9798071,2.201283
69.35347,105.93,-1.837998,0.9798071,2.201283
69.40337,103.387,-1.834162,0.9799718,2.201283
69.45255,101.7341,-1.814984,0.9801366,2.201283
69.50276,99.19109,-1.795807,0.9799718,2.201283
69.55177,98.6825,-1.795807,0.9798071,2.201283
69.60329,96.26666,-1.780465,0.9799718,2.201283
69.65271,94.35944,-1.849505,0.9799718,2.201283
69.7026,92.83366,-1.868683,0.9798071,2.194824
69.75239,92.57936,-1.891697,0.9798071,2.194824
69.80254,137.7171,-1.872519,0.9799718,2.201283
69.85373,170.9029,-1.857176,0.9799718,2.194824
69.90361,166.9613,-1.861011,0.9798071,2.194824
69.95241,157.6795,-1.880189,0.9798071,2.194824
70.0024,153.3564,-1.891697,0.9798071,2.201283
70.05204,134.6656,-1.907038,0.9798071,2.201283
70.10342,129.9611,-1.895532,0.9799718,2.194824
70.15304,129.8339,-1.880189,0.9798071,2.194824
70.2019,131.4868,-1.876354,0.9799718,2.201283
70.25204,122.205,-1.868683,0.9798071,2.194824
70.30258,117.2462,-1.853341,0.9798071,2.194824
70.35271,108.6001,-1.84567,0.9798071,2.194824
70.4032,107.2015,-1.822656,0.9798071,2.194824
70.45256,104.0227,-1.795807,0.9798071,2.201283
70.5026,100.9712,-1.7843,0.9798071,2.194824
70.55257,98.80965,-1.753616,0.9799718,2.194824
70.6039,96.90242,-1.753616,0.9798071,2.194824
70.65356,94.99519,-1.788135,0.9798071,2.194824
70.70228,94.48659,-1.830327,0.9799718,2.194824
70.75198,92.57936,-1.853341,0.9798071,2.194824
70.80175,110.253,-1.864848,0.9798071,2.194824
70.85275,169.3771,-1.880189,0.9799718,2.194824
70.90273,170.9029,-1.895532,0.9798071,2.194824
70.95275,160.4767,-1.891697,0.9798071,2.194824
71.00275,157.0437,-1.918546,0.9798071,2.194824
71.0517,147.3804,-1.918546,0.9799718,2.194824
71.10352,133.9027,-1.910875,0.9799718,2.194824
71.15343,132.6312,-1.884025,0.9799718,2.194824
71.20185,133.1398,-1.864848,0.9798071,2.188364
71.25182,127.6724,-1.861011,0.9798071,2.194824
71.30254,116.4833,-1.837998,0.9798071,2.194824
71.3539,111.2702,-1.830327,0.9798071,2.188364
71.40334,108.6001,-1.768957,0.9799718,2.188364
71.45173,106.1843,-1.72293,0.9799718,2.194824
71.50274,104.0227,-1.673068,0.9798071,2.188364
71.55289,101.8612,-1.630876,0.9798071,2.194824
71.60387,98.30104,-1.584849,0.9798071,2.188364
71.6537,97.66531,-1.61937,0.9798071,2.188364
71.70263,97.02956,-1.646219,0.9799718,2.188364
71.75253,97.53816,-1.734438,0.9798071,2.188364
71.80235,159.2052,-1.72293,0.9798071,2.188364
71.85308,169.25,-1.688411,0.9798071,2.188364
71.9036,164.9269,-1.646219,0.9799718,2.188364
71.95239,159.0781,-1.627041,0.9799718,2.188364
72.00223,155.1365,-1.592521,0.9799718,2.188364
72.05181,137.3357,-1.61937,0.9799718,2.188364
72.10339,132.6312,-1.600192,0.9799718,2.188364
72.15323,133.2669,-1.565671,0.9798071,2.188364
72.20184,133.2669,-1.558,0.9798071,2.188364
72.25298,120.6792,-1.558,0.9799718,2.188364
72.30184,117.3734,-1.554165,0.9798071,2.188364
72.35298,108.7272,-1.542657,0.9798071,2.188364
72.40285,107.71,-1.550329,0.9798071,2.194824
72.45248,103.8956,-1.561836,0.9798071,2.188364
72.50252,101.7341,-1.569508,0.9798071,2.188364
72.55235,100.3354,-1.634711,0.9799718,2.188364
72.60363,98.1739,-1.684575,0.9799718,2.188364
72.65366,97.66531,-1.745944,0.9798071,2.181905
72.70202,97.66531,-1.765122,0.9798071,2.188364
72.75201,142.0402,-1.788135,0.9798071,2.188364
72.80193,166.707,-1.814984,0.9798071,2.181905
72.85326,160.731,-1.814984,0.9798071,2.181905
72.90298,157.4252,-1.814984,0.9799718,2.188364
72.95297,139.3701,-1.861011,0.9798071,2.188364
73.003,132.2497,-1.826492,0.9798071,2.188364
73.05297,132.3769,-1.765122,0.9798071,2.188364
73.10323,128.8167,-1.742108,0.9798071,2.188364
73.15323,121.315,-1.703752,0.9798071,2.181905
73.20197,116.6105,-1.638548,0.9798071,2.181905
73.25197,107.0743,-1.49663,0.9798071,2.188364
73.3025,105.5485,-1.239646,0.9798071,2.188364
73.35374,104.0227,-1.059373,0.9799718,2.188364
73.40374,101.0983,-0.9059496,0.9798071,2.181905
73.45235,99.57254,-0.6489656,0.9799718,2.181905
73.50294,97.66531,-0.3919801,0.9798071,2.181905
73.55214,95.88522,-0.1541743,0.9798071,2.181905
73.60322,97.53816,0.0337692,0.9798071,2.181905
73.6531,134.7927,0.1219879,0.9798071,2.181905
73.70222,165.6898,0.2063713,0.9798071,2.188364
73.75236,166.9613,0.2869179,0.9798071,2.181905
73.80226,161.7482,0.2984253,0.9798071,2.188364
73.85351,156.9166,0.3674659,0.9799718,2.181905
73.90326,137.2085,0.4365065,0.9798071,2.181905
73.95183,129.8339,0.505547,0.9798071,2.188364
74.00298,130.9782,0.5669168,0.9798071,2.181905
74.05299,130.724,0.6014364,0.9799718,2.181905
74.10378,121.4421,0.6091085,0.9799718,2.181905
74.15374,117.3734,0.6052732,0.9798071,2.181905
74.2021,111.2702,0.5822597,0.9799718,2.181905
74.25198,106.5657,0.5707522,0.9798071,2.181905
74.303,104.5313,0.5592461,0.9799718,2.181905
74.35334,103.387,0.5362326,0.9799718,2.181905
74.40325,100.5897,0.4633553,0.9798071,2.181905
74.45197,98.04675,0.4211636,0.9799718,2.181905
74.50192,96.13953,0.3367817,0.9798071,2.181905
74.5528,91.94361,0.2562337,0.9798071,2.181905
74.60375,120.0435,0.1833578,0.9798071,2.181905
74.65359,169.6314,0.1028097,0.9798071,2.181905
74.70195,167.597,0.006920336,0.9798071,2.181905
74.75286,157.298,-0.1349961,0.9798071,2.175446
74.8028,152.3392,-0.3843094,0.9798071,2.181905
74.85395,138.3529,-0.6796498,0.9798071,2.175446
74.90393,131.1054,-0.8369091,0.9798071,2.175446
74.95211,130.4697,-0.9059496,0.9798071,2.181905
75.00271,131.4868,-0.9673194,0.9798071,2.181905
75.05222,124.1122,-1.028689,0.9798071,2.181905
75.10305,117.119,-1.109236,0.9799718,2.181905
75.15293,110.3802,-1.270331,0.9798071,2.181905
75.20295,107.2015,-1.439097,0.9798071,2.181905
75.25282,101.7341,-1.508138,0.9799718,2.181905
75.30274,101.7341,-1.61937,0.9799718,2.181905
75.3535,99.44539,-1.72293,0.9798071,2.181905
75.40339,97.66531,-1.799643,0.9798071,2.175446
75.45193,95.50377,-1.872519,0.9798071,2.181905
75.50305,92.96081,-2.002929,0.9798071,2.181905
75.55257,91.94361,-2.048956,0.9798071,2.181905
75.60394,121.5692,-2.098819,0.9798071,2.181905
75.65334,170.6486,-2.129503,0.9798071,2.181905
75.70306,171.1572,-2.160188,0.9798071,2.181905
75.75278,162.0025,-2.156352,0.9798071,2.181905
75.8025,158.5695,-2.183202,0.9798071,2.188364
75.8535,147.3804,-2.194708,0.9798071,2.181905
75.90306,133.3941,-2.198543,0.9798071,2.181905
75.95312,132.3769,-2.164024,0.9798071,2.181905
76.00259,132.2497,-2.148681,0.9798071,2.188364
76.05258,126.528,-2.137175,0.9798071,2.188364
76.10384,118.1362,-2.106489,0.9799718,2.181905
76.15408,112.5417,-2.094983,0.9798071,2.181905
76.20289,106.82,-2.083476,0.9798071,2.188364
76.25271,105.6757,-2.07197,0.9799718,2.188364
76.30258,101.9884,-2.056627,0.9799718,2.188364
76.35308,99.95398,-2.052791,0.9798071,2.181905
76.40308,96.52097,-2.033613,0.9798071,2.188364
76.45271,94.61374,-2.0106,0.9798071,2.188364
76.50257,94.61374,-2.045121,0.9798071,2.188364
76.55286,91.94361,-2.07964,0.9798071,2.188364
76.60358,91.81647,-2.152516,0.9798071,2.188364
76.65345,149.1605,-2.17553,0.9798071,2.188364
76.70305,168.3599,-2.167859,0.9799718,2.188364
76.75272,167.3428,-2.164024,0.9798071,2.188364
76.80272,163.1468,-2.129503,0.9799718,2.194824
76.85396,157.6795,-2.087311,0.9798071,2.188364
76.90395,137.8443,-2.060462,0.9799718,2.188364
76.9525,133.0126,-2.014435,0.9798071,2.188364
77.00249,129.9611,-1.926216,0.9798071,2.188364
77.05249,129.5796,-1.853341,0.9799718,2.188364
77.10372,119.4077,-1.753616,0.9798071,2.188364
77.15365,115.4661,-1.592521,0.9799718,2.188364
77.2032,108.3458,-1.385398,0.9798071,2.188364
77.25208,107.3286,-1.193619,0.9798071,2.188364
77.30306,104.1499,-1.07088,0.9798071,2.188364
77.35341,99.19109,-0.9519767,0.9798071,2.188364
77.40403,97.28386,-0.8484165,0.9798071,2.188364
77.45271,94.99519,-0.6182799,0.9798071,2.188364
77.50304,93.85085,-0.4034876,0.9798071,2.194824
77.55279,92.57936,-0.253899,0.9798071,2.188364
77.60306,91.56216,-0.207872,0.9798071,2.188364
77.65302,90.29069,-0.1426668,0.9798071,2.194824
77.70306,103.8956,-0.09280442,0.9799718,2.188364
77.75256,167.7242,-0.02759923,0.9798071,2.188364
77.80244,169.7586,0.01459104,0.9796425,2.194824
77.85371,160.4767,0.12966,0.9798071,2.188364
77.90382,153.7379,0.1718503,0.9798071,2.188364
77.95232,143.4388,0.1871931,0.9799718,2.194824
78.00204,129.7068,0.2255494,0.9798071,2.194824
78.05205,129.4525,0.2830825,0.9799718,2.194824
78.10332,131.9954,0.3099328,0.9799718,2.188364
78.1538,122.8407,0.3291095,0.9799718,2.194824
78.20256,114.8304,0.3444524,0.9798071,2.194824
78.25256,108.9815,0.3482877,0.9798071,2.194824
78.30219,104.7856,0.3521231,0.9798071,2.194824
78.3539,102.6241,0.3444524,0.9798071,2.194824
78.40411,99.57254,0.3367817,0.9799718,2.194824
78.45286,96.90242,0.3176035,0.9798071,2.194824
78.5024,96.01237,0.3022607,0.9798071,2.194824
78.55206,94.99519,0.2715765,0.9798071,2.194824
78.60405,92.19792,0.1756871,0.9796425,2.194824
78.65402,89.5278,0.07212553,0.9796425,2.194824
78.70252,89.5278,-0.05061274,0.9798071,2.194824
78.75256,89.90925,-0.1426668,0.9798071,2.194824
78.80231,172.3016,-0.2347223,0.9799718,2.194824
78.85359,166.3256,-0.3651313,0.9798071,2.188364
78.90331,155.0093,-0.4380086,0.9798071,2.188364
78.95207,149.1605,-0.5760897,0.9799718,2.194824
79.00299,131.614,-0.6911573,0.9798071,2.194824
79.05302,125.638,-0.7141708,0.9798071,2.194824
79.10368,127.0366,-0.733349,0.9798071,2.194824
79.15333,129.4525,-0.7947174,0.9798071,2.194824
79.20293,119.0263,-0.8023895,0.9798071,2.194824
79.25306,111.3974,-0.8100602,0.9798071,2.194824
79.30301,107.9643,-0.8292384,0.9798071,2.194824
79.3542,104.0227,-0.8407444,0.9798071,2.194824
79.4037,101.0983,-0.8484165,0.9798071,2.188364
79.45234,101.0983,-0.8560872,0.9799718,2.194824
79.50233,98.04675,-0.8675947,0.9799718,2.194824
79.55235,95.75809,-0.8791007,0.9798071,2.194824
79.60398,94.2323,-0.917457,0.9798071,2.194824
79.65394,93.72369,-0.9980037,0.9799718,2.188364
79.70244,92.96081,-1.16677,0.9798071,2.194824
79.75328,89.90925,-1.301016,0.9799718,2.194824
79.80247,111.6517,-1.381563,0.9798071,2.194824
79.85356,174.4631,-1.431425,0.9798071,2.194824
79.90356,172.0473,-1.500466,0.9798071,2.194824
79.95313,158.9509,-1.558,0.9798071,2.194824
80.00215,156.408,-1.822656,0.9799718,2.194824
80.05321,142.5488,-1.903203,0.9798071,2.194824
80.10381,130.3425,-1.941559,0.9799718,2.188364
80.15356,129.1982,-1.953065,0.9798071,2.194824
80.20245,129.5796,-1.953065,0.9799718,2.194824
80.25316,128.0538,-1.953065,0.9798071,2.194824
80.30308,115.4661,-1.953065,0.9798071,2.194824
80.35416,113.0503,-1.94923,0.9798071,2.188364
80.40316,106.82,-1.945395,0.9798071,2.194824
80.45316,103.7684,-1.945395,0.9798071,2.188364
80.50316,103.387,-1.937724,0.9798071,2.194824
80.55317,99.44539,-1.922381,0.9798071,2.194824
80.60393,97.53816,-1.922381,0.9798071,2.194824
80.65356,96.90242,-1.922381,0.9798071,2.188364
80.70216,94.48659,-1.922381,0.9798071,2.188364
80.75265,92.45221,-1.960737,0.9798071,2.188364
80.80217,90.29069,-1.972243,0.9798071,2.188364
80.85393,89.14634,-2.0106,0.9798071,2.194824
80.9035,113.9403,-2.060462,0.9798071,2.188364
80.95318,131.1054,-2.083476,0.9798071,2.188364
81.00247,169.6314,-2.102654,0.9798071,2.188364
81.05219,154.2464,-2.087311,0.9799718,2.194824
81.10345,146.8718,-2.094983,0.9798071,2.188364
81.15319,133.5212,-2.083476,0.9798071,2.188364
81.20242,126.7823,-2.045121,0.9799718,2.194824
81.25243,126.4009,-2.022107,0.9799718,2.188364
81.30242,128.6896,-2.014435,0.9799718,2.194824
81.35345,120.9335,-1.999092,0.9798071,2.188364
81.40328,113.9403,-1.979915,0.9799718,2.188364
81.45224,109.9987,-1.960737,0.9799718,2.188364
81.50244,103.7684,-1.94923,0.9799718,2.194824
81.55259,101.8612,-1.930052,0.9799718,2.188364
81.60371,100.5897,-1.907038,0.9799718,2.188364
81.65423,99.95398,-1.864848,0.9798071,2.188364
81.70296,99.06393,-1.830327,0.9798071,2.188364
81.75328,96.52097,-1.738273,0.9799718,2.188364
81.80325,94.2323,-1.638548,0.9798071,2.188364
81.85387,92.19792,-1.588684,0.9798071,2.188364
81.90331,90.67213,-1.504302,0.9799718,2.188364
81.95319,89.14634,-1.396906,0.9798071,2.188364
82.00301,117.7548,-1.304852,0.9798071,2.188364
82.05269,174.9717,-1.20129,0.9799718,2.188364
82.10371,172.0473,-1.132249,0.9798071,2.188364
82.15325,154.5007,-1.024853,0.9799718,2.188364
82.2027,147.889,-0.909785,0.9798071,2.188364
82.25256,132.2497,-0.8330737,0.9798071,2.181905
82.30244,127.1638,-0.7064987,0.9799718,2.188364
82.35371,127.5452,-0.5223905,0.9798071,2.188364
82.4034,127.5452,-0.3574606,0.9799718,2.188364
82.45267,120.1706,-0.2040367,0.9798071,2.188364
82.50266,116.229,-0.031436,0.9798071,2.188364
82.55267,109.2358,0.06445483,0.9799718,2.188364
82.60404,105.6757,0.1526735,0.9798071,2.181905
82.65428,102.7513,0.2293848,0.9799718,2.181905
82.70267,101.4798,0.2907546,0.9799718,2.181905
82.75254,98.80965,0.3367817,0.9798071,2.188364
82.80334,96.77527,0.3751366,0.9798071,2.181905
82.85371,95.37663,0.4211636,0.9798071,2.181905
82.90339,93.72369,0.45952,0.9798071,2.181905
82.95343,91.81647,0.4288357,0.9798071,2.181905
83.00323,90.29069,0.4096576,0.9798071,2.181905
83.05331,97.02956,0.3904794,0.9798071,2.181905
83.10416,125.7652,0.3674659,0.9801366,2.181905
83.15417,171.6658,0.3214388,0.9799718,2.181905
83.20254,159.7138,0.3022607,0.9798071,2.181905
83.25327,148.6519,0.2562337,0.9798071,2.181905
83.30289,142.1673,0.1948638,0.9799718,2.181905
83.35364,127.6724,0.1488368,0.9798071,2.181905
83.40337,125.2566,0.1104819,0.9798071,2.181905
83.45271,129.1982,0.0337692,0.9798071,2.181905
83.5024,123.8579,-0.07746303,0.9799718,2.181905
83.55242,115.339,-0.1580096,0.9799718,2.181905
83.60371,110.7616,-0.2385576,0.9798071,2.181905
83.65408,107.2015,-0.3843094,0.9798071,2.181905
83.70257,105.93,-0.4840356,0.9799718,2.181905
83.75236,101.8612,-0.5952664,0.9799718,2.181905
83.80334,99.82683,-0.6911573,0.9798071,2.181905
83.85391,98.42819,-0.7678685,0.9798071,2.175446
83.90379,98.6825,-0.8791007,0.9798071,2.175446
83.95271,96.01237,-0.955812,0.9799718,2.181905
84.0024,94.10515,-1.347043,0.9798071,2.181905
84.0532,93.72369,-1.450603,0.9798071,2.181905
84.10336,96.39381,-1.581014,0.9798071,2.181905
84.15416,155.8994,-1.680738,0.9798071,2.181905
84.20266,174.3359,-1.791971,0.9798071,2.181905
84.25323,165.5627,-1.857176,0.9799718,2.175446
84.3032,154.6279,-2.052791,0.9799718,2.181905
84.3542,147.5076,-2.233064,0.9799718,2.181905
84.40405,130.9782,-2.263748,0.9798071,2.175446
84.45286,129.8339,-2.248406,0.9798071,2.175446
84.50239,131.8683,-2.240735,0.9798071,2.175446
84.55239,129.9611,-2.229229,0.9798071,2.175446
84.60395,119.2806,-2.217721,0.9798071,2.175446
84.65407,116.6105,-2.198543,0.9798071,2.175446
84.70278,112.5417,-2.179365,0.9799718,2.175446
84.75278,107.5829,-2.164024,0.9798071,2.175446
84.80278,104.5313,-2.148681,0.9798071,2.175446
84.85338,102.2427,-2.098819,0.9798071,2.175446
84.90415,100.7169,-2.075805,0.9799718,2.175446
84.9529,99.57254,-2.07197,0.9798071,2.175446
85.00268,97.28386,-2.064297,0.9798071,2.175446
85.0535,96.52097,-2.164024,0.9798071,2.175446
85.10339,94.61374,-2.179365,0.9798071,2.175446
85.15343,93.72369,-2.2369,0.9798071,2.175446
85.20346,163.274,-2.259913,0.9798071,2.175446
85.25339,174.7174,-2.328954,0.9799718,2.175446
85.30317,171.7929,-2.351967,0.9799718,2.175446
85.35446,160.0953,-2.328954,0.9798071,2.175446
85.40446,155.3908,-2.328954,0.9798071,2.168987
85.45348,142.1673,-2.332789,0.9798071,2.175446
85.50342,132.6312,-2.275256,0.9799718,2.175446
85.55346,132.2497,-2.24457,0.9798071,2.168987
85.60367,131.8683,-2.229229,0.9798071,2.175446
85.65367,123.9851,-2.217721,0.9798071,2.175446
85.70317,118.2634,-2.206215,0.9799718,2.175446
85.75332,110.253,-2.202379,0.9798071,2.175446
85.80319,106.6929,-2.171694,0.9798071,2.175446
85.85387,104.9128,-2.125667,0.9799718,2.175446
85.90451,102.2427,-2.07197,0.9799718,2.168987
85.95319,100.3354,-2.060462,0.9798071,2.168987
86.00294,98.42819,-2.048956,0.9799718,2.168987
86.05292,97.28386,-2.045121,0.9798071,2.168987
86.10394,95.63092,-2.068134,0.9799718,2.168987
86.1535,95.37663,-2.056627,0.9799718,2.175446
86.20345,92.57936,-2.098819,0.9798071,2.175446
86.25319,135.8099,-2.087311,0.9798071,2.175446
86.3036,175.7346,-2.056627,0.9798071,2.175446
86.35365,172.4287,-2.0106,0.9799718,2.175446
86.4035,163.1468,-1.956902,0.9798071,2.168987
86.45345,155.3908,-1.887861,0.9798071,2.175446
86.50319,141.5316,-1.834162,0.9799718,2.175446
86.55261,132.2497,-1.661562,0.9798071,2.168987
86.60362,134.157,-1.362385,0.9798071,2.168987
86.65414,135.047,-1.116908,0.9798071,2.168987
86.70251,130.724,-0.9826623,0.9799718,2.175446
86.75244,118.772,-0.8369091,0.9798071,2.168987
86.80245,114.7032,-0.5875957,0.9799718,2.168987
86.85361,109.2358,-0.3728034,0.9798071,2.168987
86.90381,106.4386,-0.1119826,0.9799718,2.168987
86.9533,104.9128,0.04144132,0.9798071,2.168987
87.00331,104.4042,0.1219879,0.9798071,2.168987
87.05284,100.5897,0.2025359,0.9798071,2.168987
87.10446,97.53816,0.2677411,0.9799718,2.162528
87.15439,96.90242,0.2869179,0.9799718,2.168987
87.20306,95.24948,0.340617,0.9798071,2.168987
87.25281,93.08795,0.3559598,0.9798071,2.168987
87.30344,104.277,0.3636305,0.9799718,2.168987
87.35454,169.7586,0.3789734,0.9798071,2.162528
87.40414,170.7758,0.3904794,0.9798071,2.168987
87.45264,158.9509,0.4480139,0.9798071,2.168987
87.50278,156.5351,0.4978763,0.9799718,2.168987
87.55326,143.6931,0.45952,0.9798071,2.168987
87.60352,133.5212,0.4403418,0.9798071,2.168987
87.65455,133.5212,0.4326711,0.9798071,2.168987
87.70263,134.6656,0.4058222,0.9798071,2.168987
87.75361,126.0195,0.3943148,0.9799718,2.168987
87.80342,119.662,0.3904794,0.9798071,2.168987
87.85459,115.4661,0.3482877,0.9798071,2.162528
87.90426,107.9643,0.2984253,0.9798071,2.162528
87.95293,104.0227,0.2715765,0.9798071,2.162528
88.00252,102.2427,0.2332201,0.9799718,2.168987
88.05254,101.0983,0.1987006,0.9798071,2.168987
88.10426,99.06393,0.1603442,0.9799718,2.162528
88.15459,97.28386,0.1066465,0.9799718,2.162528
88.20338,95.24948,-0.05444951,0.9799718,2.168987
88.25338,94.10515,-0.2270502,0.9799718,2.168987
88.30298,93.34225,-0.45335,0.9798071,2.162528
88.35418,149.2876,-0.6029385,0.9798071,2.162528
88.40417,171.7929,-0.7371843,0.9798071,2.162528
88.45293,165.817,-0.825403,0.9798071,2.162528
88.50262,160.0953,-0.9289631,0.9799718,2.162528
88.55317,156.5351,-1.109236,0.9799718,2.168987
88.60439,134.9198,-1.385398,0.9798071,2.162528
88.65438,131.4868,-1.458275,0.9798071,2.162528
88.70341,131.1054,-1.481289,0.9799718,2.162528
88.75266,132.2497,-1.546493,0.9798071,2.162528
88.80265,122.7136,-1.592521,0.9798071,2.162528
88.85388,119.4077,-1.611698,0.9798071,2.162528
88.90466,112.6688,-1.630876,0.9799718,2.162528
88.95317,108.8544,-1.638548,0.9798071,2.162528
89.00317,107.5829,-1.642384,0.9799718,2.162528
89.05289,105.5485,-1.642384,0.9799718,2.162528
89.10386,101.7341,-1.65389,0.9799718,2.162528
89.15413,100.9712,-1.738273,0.9798071,2.162528
89.2029,99.19109,-1.7843,0.9798071,2.162528
89.25289,96.52097,-1.91471,0.9798071,2.162528
89.30286,94.10515,-1.956902,0.9798071,2.162528
89.35473,94.48659,-2.041284,0.9798071,2.156069
89.40442,125.8923,-2.091148,0.9798071,2.162528
89.45317,172.5559,-2.121832,0.9798071,2.162528
89.50285,165.9441,-2.148681,0.9798071,2.156069
89.55312,161.6211,-2.202379,0.9798071,2.162528
89.60438,160.0953,-2.321283,0.9798071,2.156069
89.65442,139.6244,-2.455529,0.9798071,2.162528
89.70315,138.0986,-2.447857,0.9798071,2.162528
89.75317,135.3013,-2.405665,0.9798071,2.162528
89.80317,136.4456,-2.401829,0.9799718,2.162528
89.85442,126.2737,-2.378816,0.9798071,2.162528
89.90437,120.4249,-2.351967,0.9799718,2.162528
89.95274,112.9231,-2.328954,0.9798071,2.162528
90.00265,111.906,-2.309776,0.9799718,2.162528
90.05264,109.1087,-2.282927,0.9799718,2.162528
90.10384,106.3114,-2.259913,0.9799718,2.162528
90.15373,104.0227,-2.24457,0.9799718,2.162528
90.20374,100.9712,-2.225392,0.9799718,2.162528
90.25312,98.42819,-2.221557,0.9799718,2.162528
90.30299,96.52097,-2.2369,0.9798071,2.162528
90.35387,95.63092,-2.279091,0.9799718,2.162528
90.40465,94.10515,-2.340461,0.9798071,2.168987
90.45341,109.8716,-2.444021,0.9798071,2.168987
90.50317,168.8685,-2.490048,0.9799718,2.168987
90.55376,173.0645,-2.582102,0.9798071,2.168987
90.60387,167.3428,-2.547583,0.9798071,2.168987
90.65462,162.7654,-2.524569,0.9798071,2.168987
90.70337,161.6211,-2.474705,0.9799718,2.168987
90.75367,139.7515,-2.440186,0.9799718,2.175446
90.80376,138.0986,-2.336624,0.9798071,2.175446
90.85374,138.9886,-2.282927,0.9799718,2.181905
90.90376,135.6828,-2.259913,0.9799718,2.175446
90.95316,126.2737,-2.190873,0.9798071,2.181905
91.00299,120.9335,-2.07964,0.9799718,2.181905
91.05383,114.5761,-2.022107,0.9798071,2.181905
91.10461,111.3974,-1.930052,0.9799718,2.181905
91.1545,109.8716,-1.826492,0.9798071,2.181905
91.20285,106.3114,-1.642384,0.9798071,2.188364
91.25366,104.7856,-1.312522,0.9799718,2.188364
91.30313,100.9712,-1.082387,0.9799718,2.194824
91.35464,99.06393,-0.9366353,0.9799718,2.194824
91.40464,98.04675,-0.7064987,0.9798071,2.194824
91.45316,96.13953,-0.4840356,0.9799718,2.201283
91.50299,94.99519,-0.3651313,0.9798071,2.194824
91.55361,93.34225,-0.3267764,0.9798071,2.201283
91.6044,91.05358,-0.2462283,0.9799718,2.194824
91.65428,93.34225,-0.2040367,0.9799718,2.201283
91.70316,115.9747,-0.1311608,0.9798071,2.201283
91.75287,158.4424,-0.07362626,0.9799718,2.207742
91.80276,170.0129,-0.0007503638,0.9798071,2.207742
91.85399,162.7654,0.02993385,0.9798071,2.207742
91.90398,159.7138,0.07979623,0.9799718,2.207742
91.95359,150.3048,0.09513905,0.9799718,2.207742
92.00349,137.59,0.1334954,0.9798071,2.214201
92.05324,139.1158,0.2063713,0.9798071,2.214201
92.10448,140.1329,0.2677411,0.9799718,2.214201
92.15485,135.3013,0.3022607,0.9798071,2.22066
92.20349,126.4009,0.3214388,0.9798071,2.22066
92.25349,121.315,0.2984253,0.9799718,2.22066
92.30349,117.3734,0.2984253,0.9801366,2.22066
92.35397,111.7788,0.2869179,0.9799718,2.22066
92.40484,109.1087,0.2677411,0.9798071,2.22066
92.45361,107.2015,0.2447276,0.9798071,2.227119
92.50361,104.4042,0.2063713,0.9799718,2.227119
92.55341,100.9712,0.1565089,0.9798071,2.227119
92.6048,98.42819,0.0260985,0.9798071,2.227119
92.65379,96.90242,-0.1656803,0.9799718,2.233578
92.70393,96.52097,-0.3996522,0.9798071,2.227119
92.75368,104.0227,-0.6604716,0.9798071,2.227119
92.80348,166.4527,-0.7832113,0.9798071,2.227119
92.8538,172.0473,-0.9212924,0.9798071,2.233578
92.90389,165.1812,-1.082387,0.9799718,2.233578
92.9537,160.731,-1.485124,0.9799718,2.233578
93.00279,155.3908,-1.657725,0.9798071,2.233578
93.0538,137.9714,-1.830327,0.9799718,2.233578
93.10373,136.0642,-1.887861,0.9799718,2.240038
93.15462,137.7171,-1.941559,0.9798071,2.240038
93.20347,130.0882,-1.964573,0.9798071,2.240038
93.25311,122.8407,-1.968408,0.9799718,2.240038
93.30312,117.7548,-1.968408,0.9799718,2.240038
93.35423,110.6345,-1.976079,0.9799718,2.240038
93.40394,108.3458,-1.972243,0.9798071,2.246497
93.45373,107.5829,-1.968408,0.9799718,2.246497
93.50372,104.7856,-1.972243,0.9799718,2.246497
93.5536,103.0055,-1.983751,0.9799718,2.240038
93.6049,101.0983,-1.987586,0.9799718,2.246497
93.65377,98.42819,-2.056627,0.9798071,2.240038
93.70377,97.15671,-2.129503,0.9799718,2.246497
93.7536,95.75809,-2.225392,0.9798071,2.246497
93.80297,140.3873,-2.263748,0.9798071,2.252956
93.85429,172.4287,-2.309776,0.9798071,2.246497
93.90423,171.6658,-2.374981,0.9799718,2.246497
93.95295,164.0369,-2.374981,0.9798071,2.252956
94.00347,163.274,-2.386488,0.9799718,2.252956
94.05345,153.4836,-2.390323,0.9798071,2.246497
94.10448,139.7515,-2.386488,0.9801366,2.252956
94.15435,138.48,-2.332789,0.9799718,2.252956
94.20372,138.0986,-2.317448,0.9798071,2.252956
94.25347,133.0126,-2.29827,0.9798071,2.252956
94.30347,120.9335,-2.275256,0.9801366,2.252956
94.35461,118.3905,-2.259913,0.9799718,2.252956
94.40461,112.6688,-2.248406,0.9799718,2.252956
94.45317,110.253,-2.2369,0.9798071,2.259415
94.50327,107.0743,-2.217721,0.9799718,2.252956
94.55289,105.2942,-2.187037,0.9798071,2.259415
94.60423,104.0227,-2.187037,0.9799718,2.252956
94.65408,99.44539,-2.167859,0.9798071,2.252956
94.70284,99.19109,-2.221557,0.9798071,2.259415
94.75285,94.74089,-2.2369,0.9798071,2.259415
94.80339,97.02956,-2.309776,0.9798071,2.259415
94.85448,156.5351,-2.371145,0.9798071,2.259415
94.90446,171.7929,-2.428679,0.9799718,2.252956
94.95322,167.2156,-2.444021,0.9799718,2.259415
95.00372,164.164,-2.424843,0.9798071,2.259415
95.05334,164.4183,-2.394159,0.9798071,2.259415
95.10479,152.0849,-2.382651,0.9801366,2.259415
95.15422,140.3873,-2.355803,0.9798071,2.259415
95.2036,139.2429,-2.27142,0.9798071,2.259415
95.25323,139.7515,-2.263748,0.9798071,2.259415
95.30308,127.9267,-2.252242,0.9799718,2.265874
95.35425,125.0023,-2.217721,0.9798071,2.259415
95.40431,118.6448,-2.17553,0.9798071,2.259415
95.45396,114.7032,-2.091148,0.9798071,2.259415
95.50366,111.5245,-2.037449,0.9799718,2.259415
95.55347,108.3458,-1.972243,0.9798071,2.259415
95.60439,106.1843,-1.884025,0.9798071,2.259415
95.65408,103.7684,-1.753616,0.9798071,2.259415
95.70385,102.6241,-1.573343,0.9799718,2.259415
95.75372,99.82683,-1.335536,0.9799718,2.265874
95.80389,95.24948,-1.278003,0.9798071,2.259415
95.85484,93.2151,-1.147592,0.9799718,2.259415
95.90459,94.48659,-1.109236,0.9798071,2.265874
95.95321,156.5351,-1.047866,0.9799718,2.265874
96.00407,171.5387,-0.9634841,0.9799718,2.265874
96.05407,168.4871,-0.8522519,0.9798071,2.259415
96.10407,164.2912,-0.5032123,0.9801366,2.265874
96.15388,162.3839,-0.3267764,0.9798071,2.265874
96.20356,152.2121,-0.2692418,0.9798071,2.265874
96.25307,138.0986,-0.161845,0.9798071,2.272334
96.30308,138.3529,-0.004585714,0.9798071,2.265874
96.35433,139.2429,0.06445483,0.9798071,2.259415
96.40498,131.1054,0.12966,0.9798071,2.265874
96.45309,123.6036,0.1948638,0.9799718,2.265874
96.5031,118.5177,0.2408908,0.9798071,2.265874
96.55309,111.7788,0.2984253,0.9798071,2.265874
96.60433,110.253,0.340617,0.9798071,2.265874
96.65408,109.8716,0.3866441,0.9798071,2.265874
96.70408,109.8716,0.4518493,0.9798071,2.265874
96.75412,101.8612,0.5362326,0.9798071,2.265874
96.80367,99.19109,0.551574,0.9799718,2.265874
96.85419,98.04675,0.540068,0.9799718,2.265874
96.90415,96.01237,0.45952,0.9799718,2.265874
96.95414,94.99519,0.4173283,0.9799718,2.265874
97.00416,109.6173,0.3904794,0.9798071,2.265874
97.05408,166.9613,0.3713012,0.9798071,2.265874
97.10509,168.6142,0.3214388,0.9798071,2.265874
97.15485,166.1984,0.2907546,0.9799718,2.265874
97.20293,162.7654,0.2332201,0.9799718,2.265874
97.25316,157.4252,0.1833578,0.9798071,2.265874
97.30313,136.8271,0.1028097,0.9798071,2.265874
97.35435,136.0642,0.06829018,0.9799718,2.265874
97.40435,136.8271,-0.02376388,0.9798071,2.265874
97.45415,130.2153,-0.1426668,0.9798071,2.265874
97.50358,123.2222,-0.2385576,0.9798071,2.265874
97.55383,117.6276,-0.3689666,0.9798071,2.265874
97.60429,112.9231,-0.5147198,0.9799718,2.265874
97.65459,109.7444,-0.6297874,0.9798071,2.265874
97.70411,109.363,-0.7295122,0.9799718,2.265874
97.7541,104.4042,-0.7832113,0.9798071,2.265874
97.80408,101.3526,-0.8522519,0.9798071,2.265874
97.85509,99.82683,-0.9212924,0.9798071,2.265874
97.90483,95.50377,-0.9826623,0.9799718,2.265874
97.95358,94.35944,-1.16677,0.9798071,2.265874
98.00358,93.2151,-1.358549,0.9798071,2.265874
98.05361,92.57936,-1.439097,0.9798071,2.265874
98.10485,122.3321,-1.519644,0.9798071,2.265874
98.15457,171.9201,-1.546493,0.9799718,2.259415
98.20329,172.683,-1.607863,0.9798071,2.265874
98.25382,166.5799,-1.676903,0.9798071,2.265874
98.30331,165.0541,-1.861011,0.9799718,2.265874
98.35432,153.3564,-1.899368,0.9798071,2.265874
98.40414,140.3873,-1.91471,0.9798071,2.265874
98.45358,137.9714,-1.91471,0.9798071,2.265874
98.50307,137.4628,-1.910875,0.9801366,2.265874
98.55307,128.181,-1.907038,0.9798071,2.265874
98.60507,122.5864,-1.907038,0.9798071,2.265874
98.65443,118.3905,-1.903203,0.9798071,2.259415
98.70322,111.6517,-1.907038,0.9799718,2.259415
98.75299,109.7444,-1.903203,0.9798071,2.265874
98.80412,106.1843,-1.903203,0.9798071,2.265874
98.85522,104.7856,-1.903203,0.9798071,2.259415
98.90524,102.2427,-1.899368,0.9798071,2.259415
98.95387,98.80965,-1.884025,0.9798071,2.259415
99.00398,96.01237,-1.876354,0.9798071,2.259415
99.05392,93.34225,-1.876354,0.9798071,2.265874
99.10487,92.07076,-1.887861,0.9799718,2.259415
99.15495,90.03638,-1.903203,0.9798071,2.259415
99.20325,89.5278,-1.94923,0.9798071,2.265874
99.25418,88.00201,-1.960737,0.9798071,2.259415
99.30387,119.5349,-2.01827,0.9801366,2.259415
99.35407,174.5902,-2.052791,0.9799718,2.259415
99.40522,172.683,-2.094983,0.9799718,2.259415
99.45382,166.3256,-2.083476,0.9798071,2.259415
99.50331,161.4939,-2.087311,0.9799718,2.259415
99.55322,158.9509,-2.087311,0.9799718,2.259415
99.60473,141.2773,-2.087311,0.9798071,2.259415
99.65456,139.8786,-2.056627,0.9798071,2.259415
99.70337,138.48,-2.033613,0.9799718,2.259415
99.75334,134.9198,-2.029778,0.9799718,2.259415
99.80334,128.8167,-2.01827,0.9798071,2.259415
99.85481,116.6105,-2.0106,0.9798071,2.259415
99.90459,115.339,-1.995257,0.9798071,2.259415
99.95333,110.8888,-1.983751,0.9798071,2.259415
100.0033,107.2015,-1.983751,0.9798071,2.259415
100.054,104.1499,-1.972243,0.9798071,2.259415
100.1047,103.387,-1.953065,0.9798071,2.252956
100.1546,100.3354,-1.941559,0.9798071,2.252956
100.2031,97.79247,-1.941559,0.9798071,2.259415
100.2538,96.13953,-1.941559,0.9798071,2.259415
100.3033,93.34225,-1.964573,0.9799718,2.259415
100.3546,93.2151,-1.983751,0.9799718,2.252956
100.4049,91.81647,-2.006764,0.9798071,2.259415
100.4537,104.4042,-2.033613,0.9798071,2.259415
100.5033,171.0301,-2.056627,0.9799718,2.252956
100.5541,172.0473,-2.068134,0.9798071,2.252956
100.6046,163.1468,-2.022107,0.9798071,2.259415
100.6546,159.7138,-1.995257,0.9799718,2.252956
100.7031,157.1709,-1.960737,0.9799718,2.252956
100.7531,139.2429,-1.899368,0.9799718,2.252956
100.8032,137.2085,-1.807313,0.9798071,2.259415
100.8546,135.8099,-1.669232,0.9798071,2.252956
100.9044,128.0538,-1.477452,0.9798071,2.246497
100.9534,120.0435,-1.212797,0.9799718,2.252956
101.0034,116.9919,-1.021017,0.9798071,2.252956
101.0537,109.2358,-0.8560872,0.9798071,2.246497
101.1044,107.9643,-0.5875957,0.9799718,2.252956
101.1553,105.1671,-0.3958169,0.9798071,2.252956
101.2041,103.0055,-0.2270502,0.9798071,2.252956
101.2541,99.06393,-0.06212021,0.9798071,2.246497
101.3037,97.53816,0.08746835,0.9799718,2.252956
101.355,95.37663,0.1680149,0.9799718,2.252956
101.4047,92.57936,0.248563,0.9798071,2.252956
101.4535,89.90925,0.260069,0.9798071,2.252956
101.5039,89.0192,0.3329463,0.9798071,2.246497
101.5536,93.978,0.3482877,0.9799718,2.252956
101.6051,153.3564,0.3789734,0.9798071,2.246497
101.6547,172.4287,0.4134929,0.9798071,2.246497
101.704,171.1572,0.4556846,0.9798071,2.246497
101.754,157.0437,0.5439033,0.9798071,2.246497
101.8038,153.3564,0.586095,0.9798071,2.246497
101.8552,133.1398,0.5976011,0.9798071,2.246497
101.9045,130.3425,0.6359574,0.9799718,2.246497
101.9534,132.7583,0.7088333,0.9799718,2.246497
102.0033,133.5212,0.704998,0.9798071,2.246497
102.0534,122.5864,0.678149,0.9798071,2.246497
102.1054,118.1362,0.6474634,0.9799718,2.240038
102.1551,109.1087,0.6167792,0.9798071,2.240038
102.2038,107.2015,0.5822597,0.9799718,2.246497
102.2537,103.7684,0.5477387,0.9798071,2.246497
102.3032,101.7341,0.4902042,0.9799718,2.246497
102.3543,99.82683,0.45952,0.9798071,2.240038
102.4051,96.77527,0.4365065,0.9798071,2.240038
102.4537,95.63092,0.3828087,0.9798071,2.240038
102.5042,94.86804,0.3176035,0.9799718,2.240038
102.554,93.34225,0.2217141,0.9798071,2.240038
102.605,90.29069,0.1258233,0.9798071,2.246497
102.6548,99.57254,-0.0007503638,0.9799718,2.240038
102.704,113.4317,-0.09663977,0.9798071,2.240038
102.7536,169.25,-0.2654065,0.9799718,2.240038
102.8033,164.7998,-0.4456793,0.9798071,2.246497
102.8545,156.5351,-0.7026633,0.9798071,2.240038
102.9048,151.4492,-0.8637579,0.9798071,2.240038
102.9541,133.1398,-0.9864976,0.9798071,2.240038
103.004,130.3425,-1.051703,0.9799718,2.240038
103.0535,131.4868,-1.20129,0.9798071,2.240038
103.1043,127.1638,-1.385398,0.9798071,2.233578
103.1547,120.4249,-1.469781,0.9799718,2.240038
103.2033,117.6276,-1.534987,0.9799718,2.240038
103.254,112.6688,-1.581014,0.9798071,2.240038
103.3041,108.9815,-1.623205,0.9799718,2.240038
103.3553,104.9128,-1.657725,0.9798071,2.240038
103.4052,103.2598,-1.65389,0.9798071,2.240038
103.4538,101.2255,-1.669232,0.9798071,2.233578
103.5034,99.06393,-1.699917,0.9799718,2.240038
103.5538,97.28386,-1.745944,0.9798071,2.233578
103.6048,95.63092,-1.837998,0.9799718,2.240038
103.6549,94.10515,-1.899368,0.9799718,2.233578
103.7033,93.34225,-1.937724,0.9799718,2.233578
103.7542,118.8991,-1.94923,0.9798071,2.233578
103.8042,174.3359,-1.953065,0.9799718,2.233578
103.8553,171.1572,-1.960737,0.9798071,2.233578
103.905,166.1984,-1.968408,0.9798071,2.233578
103.9533,160.0953,-1.976079,0.9799718,2.233578
104.0044,153.4836,-1.983751,0.9799718,2.233578
104.0538,138.0986,-1.991422,0.9798071,2.233578
104.1048,136.8271,-1.987586,0.9799718,2.233578
104.1543,135.4285,-1.983751,0.9799718,2.233578
104.204,132.7583,-1.976079,0.9798071,2.233578
104.2539,120.9335,-1.968408,0.9798071,2.233578
104.3035,114.5761,-1.960737,0.9798071,2.233578
104.3543,110.8888,-1.953065,0.9798071,2.227119
104.4052,107.0743,-1.941559,0.9798071,2.233578
104.4539,105.1671,-1.937724,0.9798071,2.227119
104.5037,101.4798,-1.937724,0.9799718,2.233578
104.5543,100.5897,-1.945395,1.269859,2.227119
104.6046,97.28386,-1.933889,1.269859,2.227119
104.6546,95.63092,-1.972243,1.269859,2.227119
104.7033,94.2323,-1.972243,1.269859,2.227119
104.754,92.96081,-2.022107,1.269859,2.227119
104.8036,158.5695,-2.041284,1.269694,2.227119
104.8548,173.9545,-2.075805,1.269859,2.227119
104.9048,169.7586,-2.068134,1.269859,2.227119
104.9544,162.0025,-2.07964,1.269859,2.233578
105.0043,157.298,-2.068134,1.269859,2.227119
105.0543,137.3357,-2.060462,1.269859,2.227119
105.1053,134.6656,-2.01827,1.269694,2.22066
105.1546,135.047,-1.991422,1.269859,2.227119
105.2033,133.7755,-1.987586,1.269694,2.227119
105.2533,127.1638,-1.976079,1.269694,2.227119
105.3043,118.1362,-1.960737,1.269859,2.227119
105.3552,112.2874,-1.945395,1.269859,2.227119
105.405,106.6929,-1.91471,1.269859,2.227119
105.4538,103.387,-1.872519,1.269859,2.227119
105.5046,102.497,-1.811149,1.269859,2.227119
105.5541,100.9712,-1.703752,1.269694,2.227119
105.6054,99.06393,-1.584849,1.269859,2.227119
105.6553,97.28386,-1.39307,1.269859,2.227119
105.704,96.77527,-1.339371,1.269859,2.227119
105.7546,91.94361,-1.16677,1.269859,2.22066
105.8043,96.13953,-1.086222,1.269859,2.227119
105.8543,156.5351,-1.001839,1.269694,2.227119
105.9043,170.14,-0.9366353,1.269859,2.227119
105.9538,165.0541,-0.8445798,1.269859,2.227119
106.0035,157.8066,-0.5760897,1.269859,2.22066
106.0534,153.4836,-0.3689666,1.269859,2.22066
106.1046,133.0126,-0.2270502,1.269694,2.22066
106.1546,133.1398,-0.0391067,1.269694,2.22066
106.2042,133.0126,0.07212553,1.269859,2.22066
106.2541,130.724,0.1373307,1.269694,2.22066
106.3041,121.6964,0.2255494,1.269859,2.22066
106.3555,115.8476,0.2792472,1.269694,2.22066
106.4044,108.7272,0.3252742,1.269859,2.22066
106.4538,106.9472,0.3674659,1.269694,2.22066
106.5036,105.1671,0.4019869,1.269859,2.22066
106.5539,102.3698,0.4480139,1.269859,2.227119
106.6047,100.7169,0.5323958,1.269859,2.22066
106.6547,97.66531,0.5630815,1.269859,2.22066
106.7045,96.77527,0.5554094,1.269859,2.22066
106.7539,94.99519,0.4978763,1.269694,2.22066
106.8045,91.43503,0.4365065,1.269694,2.22066
106.8545,103.7684,0.4250004,1.269694,2.22066
106.9048,165.817,0.3943148,1.269694,2.22066
106.954,167.0885,0.3482877,1.269859,2.22066
107.0038,160.8582,0.3137681,1.269694,2.22066
107.0535,155.1365,0.2523983,1.269694,2.22066
107.1044,145.6003,0.1987006,1.269694,2.214201
107.1553,128.6896,0.1373307,1.269859,2.214201
107.2034,130.0882,0.1104819,1.269859,2.214201
107.2539,132.6312,0.03760455,1.269859,2.22066
107.3039,124.8751,-0.031436,1.269859,2.214201
107.3551,116.8647,-0.08896907,1.269694,2.214201
107.4057,112.5417,-0.1656803,1.269694,2.214201
107.4545,109.6173,-0.2270502,1.269694,2.214201
107.5044,106.4386,-0.3114335,1.269859,2.214201
107.5539,104.0227,-0.4073229,1.269694,2.214201
107.6037,100.5897,-0.5032123,1.269859,2.22066
107.6537,99.95398,-0.5991032,1.269859,2.214201
107.7038,99.44539,-0.6719791,1.269859,2.214201
107.7547,93.72369,-0.8484165,1.269859,2.214201
107.8039,93.34225,-0.9136217,1.269859,2.214201
107.8539,93.72369,-1.005676,1.269859,2.214201
107.9039,160.4767,-1.09773,1.269859,2.214201
107.9537,171.5387,-1.20129,1.269694,2.214201
108.0057,169.7586,-1.266495,1.269859,2.214201
108.0541,163.5283,-1.339371,1.269859,2.214201
108.1041,156.9166,-1.473617,1.269859,2.214201
108.1544,148.0162,-1.527316,1.269859,2.214201
108.2045,133.7755,-1.531151,1.269859,2.214201
108.2545,133.5212,-1.519644,1.269859,2.214201
108.3046,132.504,-1.519644,1.269859,2.207742
108.3544,123.2222,-1.515808,1.269859,2.214201
108.4043,116.9919,-1.500466,1.269859,2.214201
108.454,107.5829,-1.500466,1.269859,2.214201
108.5053,106.0571,-1.492795,1.269694,2.207742
108.5535,105.2942,-1.481289,1.269694,2.214201
108.6035,104.1499,-1.450603,1.269859,2.207742
108.6545,100.7169,-1.442933,1.269859,2.207742
108.7044,99.57254,-1.462111,1.269694,2.214201
108.7556,96.26666,-1.462111,1.269694,2.207742
108.8042,95.75809,-1.546493,1.269859,2.214201
108.8542,91.81647,-1.561836,1.269859,2.214201
108.9044,97.28386,-1.61937,1.269859,2.214201
108.9543,150.6863,-1.638548,1.269694,2.207742
109.0046,170.7758,-1.657725,1.269859,2.207742
109.0547,165.817,-1.65389,1.269694,2.207742
109.1047,163.5283,-1.65389,1.269694,2.207742
109.1545,159.3324,-1.650054,1.269859,2.207742
109.2045,147.5076,-1.65389,1.269859,2.207742
109.2545,131.9954,-1.630876,1.269859,2.207742
109.3045,132.6312,-1.61937,1.269859,2.207742
109.3545,132.2497,-1.615535,1.269859,2.207742
109.4039,122.4593,-1.604027,1.269694,2.207742
109.4539,116.4833,-1.607863,1.269694,2.207742
109.5051,110.6345,-1.596357,1.269859,2.207742
109.5539,106.4386,-1.592521,0.9799718,2.207742
109.6045,105.5485,-1.573343,0.9799718,2.207742
109.6544,101.4798,-1.546493,0.9799718,2.207742
109.7044,100.3354,-1.538822,0.9798071,2.201283
109.755,97.66531,-1.538822,0.9798071,2.207742
109.8045,96.52097,-1.531151,0.9798071,2.207742
109.8541,93.08795,-1.604027,0.9799718,2.207742
109.9041,90.54498,-1.61937,0.9798071,2.207742
109.9541,91.81647,-1.696081,0.9798071,2.201283
110.0048,134.4113,-1.726766,0.9798071,2.201283
110.0545,170.9029,-1.730602,0.9798071,2.201283
110.1047,169.5043,-1.72293,0.9798071,2.207742
110.1543,161.6211,-1.730602,0.9799718,2.207742
110.2048,157.6795,-1.726766,0.9798071,2.201283
110.2558,140.1329,-1.715259,0.9798071,2.201283
110.3044,133.7755,-1.669232,0.9798071,2.207742
110.3544,133.5212,-1.627041,0.9799718,2.207742
110.4045,133.0126,-1.607863,0.9798071,2.201283
110.4544,124.3665,-1.588684,0.9798071,2.207742
110.5054,114.5761,-1.554165,0.9798071,2.201283
110.554,112.2874,-1.523479,0.9798071,2.201283
110.6038,106.4386,-1.462111,0.9798071,2.207742
110.6541,104.0227,-1.347043,0.9799718,2.207742
110.704,103.6413,-1.208962,0.9798071,2.201283
110.7548,99.95398,-1.082387,0.9798071,2.201283
110.8047,98.1739,-1.001839,0.9799718,2.201283
110.854,94.86804,-0.9059496,0.9798071,2.201283
110.9047,92.57936,-0.8752654,0.9799718,2.201283
110.9545,91.05358,-0.8023895,0.9798071,2.201283
111.0052,89.90925,-0.6796498,0.9799718,2.201283
111.0537,127.6724,-0.5914311,0.9798071,2.201283
111.1044,170.7758,-0.5070491,0.9798071,2.194824
111.154,167.3428,-0.3728034,0.9799718,2.201283
111.2047,159.2052,-0.1465036,0.9799718,2.201283
111.2555,155.0093,0.0337692,0.9798071,2.194824
111.3047,143.0574,0.0913037,0.9798071,2.194824
111.3541,129.1982,0.2255494,0.9798071,2.201283
111.4037,129.9611,0.3176035,0.9799718,2.201283
111.4548,132.1226,0.3713012,0.9798071,2.201283
111.5056,120.9335,0.4173283,0.9798071,2.194824
111.554,117.2462,0.4863688,0.9798071,2.194824
111.6037,113.4317,0.551574,0.9798071,2.194824
111.654,107.9643,0.6129439,0.9799718,2.194824
111.704,106.82,0.7126686,0.9799718,2.194824
111.7553,103.8956,0.8239009,0.9799718,2.201283
111.8037,101.0983,0.923627,0.9798071,2.194824
111.8545,98.42819,0.9773248,0.9798071,2.194824
111.9045,96.90242,1.011846,0.9798071,2.194824
111.9545,94.61374,1.011846,0.9798071,2.194824
112.0057,92.19792,1.004174,0.9798071,2.194824
112.054,97.15671,0.9734894,0.9799718,2.194824
112.1037,152.2121,0.9389684,0.9799718,2.201283
112.154,169.6314,0.8967767,0.9798071,2.194824
112.2048,159.2052,0.8852707,0.9798071,2.194824
112.255,153.865,0.8354083,0.9799718,2.194824
112.3045,148.5248,0.751025,0.9798071,2.194824
112.354,130.4697,0.6628063,0.9799718,2.194824
112.4037,129.5796,0.6474634,0.9798071,2.194824
112.4543,131.3597,0.5937657,0.9798071,2.194824
112.5055,123.3493,0.5439033,0.9798071,2.194824
112.5543,116.9919,0.5093823,0.9798071,2.194824
112.604,111.1431,0.4748628,0.9799718,2.194824
112.6546,108.3458,0.4326711,0.9799718,2.194824
112.7038,107.9643,0.4058222,0.9798071,2.194824
112.7551,104.277,0.3597952,0.9798071,2.194824
112.8038,101.3526,0.3137681,0.9798071,2.194824
112.8545,99.19109,0.2792472,0.9799718,2.188364
112.9047,96.64812,0.1833578,0.9798071,2.194824
112.9548,95.50377,0.0989744,0.9798071,2.194824
113.0047,94.2323,-0.02376388,0.9798071,2.188364
113.054,145.346,-0.1656803,0.9798071,2.194824
113.1038,171.9201,-0.2960907,0.9799718,2.188364
113.1537,167.7242,-0.5147198,0.9798071,2.194824
113.2037,161.7482,-0.733349,0.9799718,2.194824
113.2555,155.0093,-0.8829361,0.9798071,2.188364
113.3037,144.5831,-0.9519767,0.9798071,2.188364
113.3537,132.2497,-0.9864976,0.9799718,2.194824
113.4037,132.3769,-0.9980037,0.9798071,2.188364
113.4547,130.8511,-1.017182,0.9796425,2.188364
113.5048,120.5521,-1.024853,0.9798071,2.188364
113.5547,114.4489,-1.024853,0.9900191,2.188364
113.6047,109.7444,-1.044031,0.9898543,2.194824
113.6543,107.0743,-1.051703,0.9898543,2.188364
113.7042,103.2598,-1.047866,0.9900191,2.188364
113.7557,99.95398,-1.063209,0.9898543,2.188364
113.8043,99.57254,-1.086222,0.9898543,2.188364
113.8541,97.66531,-1.193619,0.9898543,2.194824
113.9039,95.37663,-1.254989,0.9898543,2.188364
113.9538,93.72369,-1.42759,0.9898543,2.188364
114.005,92.45221,-1.458275,0.9898543,2.188364
114.0547,117.119,-1.508138,0.9898543,2.188364
114.1041,172.3016,-1.515808,0.9900191,2.188364
114.1542,171.4115,-1.538822,0.9900191,2.188364
114.2042,164.9269,-1.542657,0.9898543,2.188364
114.2551,160.2224,-1.561836,0.9898543,2.188364
114.3046,156.7894,-1.623205,0.9898543,2.188364
114.3546,134.0298,-1.684575,0.9898543,2.188364
114.4041,132.2497,-1.688411,0.9900191,2.188364
114.4546,134.9198,-1.692246,0.9898543,2.188364
114.5054,128.4353,-1.692246,0.9898543,2.188364
114.5542,120.0435,-1.688411,0.9898543,2.188364
114.6046,115.8476,-1.692246,0.9896896,2.188364
114.6542,108.3458,-1.684575,0.9898543,2.188364
114.7048,107.3286,-1.665397,0.9898543,2.181905
114.7549,104.0227,-1.65389,0.9898543,2.181905
114.8048,102.3698,-1.646219,0.9898543,2.188364
114.8546,98.80965,-1.669232,0.9898543,2.188364
114.9045,98.80965,-1.669232,0.9898543,2.188364
114.9544,95.63092,-1.757451,0.9898543,2.188364
115.0058,92.32506,-1.807313,0.9898543,2.181905
115.0544,92.19792,-1.849505,0.9898543,2.181905
115.1041,148.6519,-1.880189,0.9898543,2.181905
115.1542,170.7758,-1.891697,0.9898543,2.181905
115.2042,167.7242,-1.887861,0.9898543,2.181905
115.255,161.4939,-1.895532,0.9896896,2.181905
115.3042,158.6966,-1.891697,0.9898543,2.181905
115.3539,145.2189,-1.891697,0.9898543,2.181905
115.4038,136.5728,-1.880189,0.9896896,2.181905
115.4538,135.4285,-1.861011,0.9896896,2.181905
115.506,131.7411,-1.853341,0.9898543,2.181905
115.5549,123.3493,-1.849505,0.9898543,2.181905
115.605,115.8476,-1.837998,0.9898543,2.181905
115.655,111.1431,-1.822656,0.9898543,2.181905
115.7041,109.6173,-1.807313,0.9898543,2.181905
115.7552,104.0227,-1.765122,0.9898543,2.181905
115.804,102.497,-1.749779,0.9896896,2.181905
115.854,100.2083,-1.72293,0.9900191,2.181905
115.9042,98.80965,-1.688411,0.9898543,2.181905
115.9542,97.02956,-1.684575,0.9898543,2.181905
116.0055,93.59654,-1.673068,0.9898543,2.181905
116.0542,91.56216,-1.657725,0.9898543,2.181905
116.1046,116.7376,-1.638548,0.9898543,2.181905
116.1543,170.2672,-1.550329,0.9898543,2.181905
116.2045,168.8685,-1.481289,0.9898543,2.181905
116.2559,162.7654,-1.270331,0.9898543,2.175446
116.304,159.5867,-1.128414,0.9898543,2.181905
116.354,152.8478,-1.051703,0.9898543,2.175446
116.405,136.0642,-0.9634841,0.9898543,2.175446
116.4546,134.157,-0.8369091,0.9898543,2.181905
116.5054,134.6656,-0.5914311,0.9898543,2.175446
116.5546,126.9095,-0.3612959,0.9900191,2.181905
116.6049,115.8476,-0.1234901,0.9898543,2.175446
116.6549,114.0675,0.0260985,0.9898543,2.181905
116.7042,111.7788,0.1334954,0.9898543,2.175446
116.7555,104.6585,0.2562337,0.9898543,2.175446
116.8043,103.2598,0.3329463,0.9898543,2.175446
116.8543,101.6069,0.4134929,0.9798071,2.175446
116.9042,99.31824,0.4863688,0.9799718,2.175446
116.9541,98.6825,0.5745875,0.9798071,2.175446
117.0054,94.48659,0.6206146,0.9798071,2.175446
117.054,92.57936,0.716504,0.9798071,2.175446
117.1039,110.6345,0.7932166,0.9798071,2.175446
117.1545,164.7998,0.8507497,0.9798071,2.175446
117.2046,169.1228,0.9044489,0.9798071,2.175446
117.2558,164.4183,0.9581466,0.9798071,2.175446
117.3043,161.6211,1.011846,0.9798071,2.175446
117.3541,156.7894,1.011846,0.9798071,2.175446
117.4039,140.6415,1.004174,0.9798071,2.175446
117.4543,135.047,1.004174,0.9798071,2.175446
117.5059,135.4285,0.9888322,0.9798071,2.168987
117.5543,133.9027,0.9504759,0.9799718,2.175446
117.604,121.315,0.9121196,0.9798071,2.181905
117.6541,118.5177,0.8584219,0.9796425,2.175446
117.7039,111.5245,0.8085595,0.9799718,2.175446
117.7551,108.8544,0.7318468,0.9798071,2.175446
117.8051,105.0399,0.6858197,0.9799718,2.175446
117.8551,102.6241,0.632122,0.9798071,2.175446
117.9048,100.7169,0.5745875,0.9798071,2.168987
117.9543,99.19109,0.4978763,0.9799718,2.175446
118.0055,98.30104,0.4173283,0.9798071,2.175446
118.0551,94.61374,0.3482877,0.9798071,2.175446
118.1043,125.0023,0.29459,0.9799718,2.168987
118.1546,170.2672,0.2562337,0.9798071,2.175446
118.2043,169.1228,0.214042,0.9798071,2.175446
118.2555,164.2912,0.1680149,0.9799718,2.175446
118.3049,160.6039,0.07212553,0.9798071,2.175446
118.3546,150.0505,0.003084986,0.9799718,2.175446
118.4043,134.7927,-0.05061274,0.9798071,2.168987
118.4543,133.5212,-0.05828486,0.9798071,2.175446
118.5051,134.6656,-0.1119826,0.9798071,2.175446
118.5549,124.748,-0.1771878,0.9798071,2.168987
118.6048,118.6448,-0.1925306,0.9798071,2.168987
118.6545,115.0847,-0.2232148,0.9798071,2.175446
118.7042,113.4317,-0.2500637,0.9799718,2.175446
118.7557,106.4386,-0.2500637,0.9798071,2.175446
118.804,105.0399,-0.2692418,0.9798071,2.168987
118.8551,101.0983,-0.2922554,0.9798071,2.175446
118.9051,99.19109,-0.3536252,0.9799718,2.168987
118.954,97.28386,-0.4111583,0.9799718,2.175446
119.0051,94.86804,-0.5530761,0.9798071,2.175446
119.0551,93.46941,-0.6029385,0.9799718,2.175446
119.105,107.71,-0.7256768,0.9798071,2.168987
119.1542,166.5799,-0.7525257,0.9798071,2.175446
119.205,168.8685,-0.7985527,0.9799718,2.175446
119.2557,165.1812,-0.8138955,0.9799718,2.168987
119.3042,161.8754,-0.8829361,0.9798071,2.175446
119.3547,158.6966,-0.9481413,0.9798071,2.168987
119.4046,136.1913,-0.9980037,0.9798071,2.168987
119.4544,135.5556,-1.001839,0.9798071,2.175446
119.5055,138.9886,-1.013346,0.9798071,2.168987
119.554,134.2841,-1.047866,0.9798071,2.168987
119.6041,123.2222,-1.047866,0.9798071,2.175446
119.6544,119.7892,-1.063209,0.9798071,2.168987
119.7043,115.5933,-1.07088,0.9799718,2.168987
119.756,107.2015,-1.07088,0.9798071,2.175446
119.8045,105.0399,-1.067044,0.9798071,2.175446
119.8545,103.7684,-1.07088,0.9798071,2.168987
119.9045,101.4798,-1.090058,0.9798071,2.168987
119.9547,97.66531,-1.136085,0.9798071,2.168987
120.0058,96.13953,-1.228139,0.9798071,2.168987
120.0546,95.37663,-1.373892,0.9798071,2.175446
120.1046,91.94361,-1.416084,0.9798071,2.168987
120.1547,122.8407,-1.458275,0.9798071,2.168987
120.2047,171.1572,-1.446768,0.9798071,2.168987
120.2552,167.4699,-1.454439,0.9798071,2.168987
120.305,163.274,-1.446768,0.9798071,2.168987
120.3547,160.4767,-1.458275,0.9798071,2.175446
120.4047,152.2121,-1.477452,0.9798071,2.168987
120.4546,135.5556,-1.49663,0.9798071,2.168987
120.5057,133.5212,-1.49663,0.9798071,2.168987
120.5543,135.4285,-1.492795,0.9798071,2.168987
120.6052,128.181,-1.481289,0.9798071,2.168987
120.6549,121.6964,-1.458275,0.9798071,2.168987
120.7044,116.4833,-1.454439,0.9798071,2.168987
120.7557,107.9643,-1.442933,0.9798071,2.162528
120.8045,107.0743,-1.435262,0.9798071,2.168987
120.8543,105.1671,-1.412248,0.9798071,2.168987
120.9042,103.387,-1.404576,0.9798071,2.168987
120.9551,99.57254,-1.39307,0.9798071,2.168987
121.0057,96.90242,-1.39307,0.9799718,2.168987
121.0545,94.35944,-1.408412,0.9798071,2.168987
121.1045,91.94361,-1.454439,0.9798071,2.168987
121.1552,90.79928,-1.49663,0.9798071,2.168987
121.2049,124.748,-1.515808,0.9798071,2.168987
121.2558,164.164,-1.515808,0.9798071,2.168987
121.3045,166.4527,-1.515808,0.9798071,2.168987
121.355,161.4939,-1.500466,0.9798071,2.162528
121.4048,158.9509,-1.473617,0.9798071,2.168987
121.4547,150.3048,-1.431425,0.9798071,2.168987
121.5059,134.0298,-1.370057,0.9798071,2.168987
121.5545,132.6312,-1.193619,0.9798071,2.168987
121.6051,134.6656,-1.067044,0.9798071,2.168987
121.6544,132.2497,-0.990333,0.9798071,2.168987
121.7045,121.315,-0.8867714,0.9798071,2.168987
121.7551,112.6688,-0.7640331,0.9799718,2.168987
121.8044,105.5485,-0.5530761,0.9798071,2.168987
121.8542,103.7684,-0.28842,0.9799718,2.162528
121.9053,101.4798,-0.06212021,0.9798071,2.168987
121.9548,97.79247,0.09513905,0.9798071,2.162528
122.0056,95.75809,0.2293848,0.9799718,2.162528
122.0542,93.85085,0.3137681,0.9798071,2.168987
122.1041,91.68932,0.3713012,0.9798071,2.168987
122.1544,90.29069,0.3981501,0.9798071,2.162528
122.2045,87.23911,0.4326711,0.9798071,2.168987
122.2557,97.15671,0.4671907,0.9796425,2.162528
122.3042,160.4767,0.5362326,0.9798071,2.162528
122.3551,166.707,0.5976011,0.9798071,2.162528
122.4053,162.7654,0.6743137,0.9798071,2.162528
122.4548,157.4252,0.8008873,0.9798071,2.162528
122.5055,151.9578,0.8622572,0.9798071,2.168987
122.5544,130.3425,0.8929414,0.9798071,2.162528
122.6052,129.5796,0.9504759,0.9798071,2.162528
122.6551,131.9954,0.9849955,0.9798071,2.162528
122.7051,126.6552,1.011846,0.9798071,2.168987
122.7561,117.6276,1.046365,0.9799718,2.162528
122.8044,113.3046,1.06938,0.9798071,2.168987
122.8542,105.8028,1.088556,0.9798071,2.162528
122.9053,104.1499,1.088556,0.9798071,2.162528
122.9552,101.8612,1.080885,0.9799718,2.162528
123.0058,100.2083,1.06938,0.9799718,2.162528
123.0543,97.41101,1.046365,0.9798071,2.162528
123.1043,94.48659,1.011846,0.9799718,2.162528
123.1542,92.45221,0.9389684,0.9798071,2.162528
123.2052,92.32506,0.8545865,0.9799718,2.162528
123.2559,100.2083,0.7471896,0.9798071,2.162528
123.3043,164.7998,0.6666416,0.9799718,2.168987
123.3552,167.8513,0.586095,0.9799718,2.162528
123.4044,162.8926,0.5247251,0.9798071,2.162528
123.4543,157.1709,0.4518493,0.9798071,2.162528
123.5056,150.6863,0.3866441,0.9798071,2.162528
123.5546,127.0366,0.3099328,0.9799718,2.162528
123.6052,125.638,0.2754118,0.9798071,2.162528
123.6551,129.1982,0.2255494,0.9798071,2.162528
123.705,127.2909,0.1603442,0.9798071,2.162528
123.7559,119.0263,0.0913037,0.9798071,2.162528
123.8043,112.6688,0.0337692,0.9798071,2.162528
123.855,104.5313,-0.031436,0.9798071,2.162528
123.9051,101.8612,-0.08513372,0.9798071,2.156069
123.955,99.95398,-0.1465036,0.9798071,2.156069
124.0052,99.57254,-0.2270502,0.9798071,2.162528
124.0551,96.52097,-0.4073229,0.9798071,2.162528
124.1053,96.64812,-0.5262259,0.9798071,2.162528
124.1552,94.10515,-0.6873219,0.9799718,2.162528
124.205,90.29069,-0.7870467,0.9798071,2.156069
124.256,93.72369,-0.8675947,0.9798071,2.156069
124.3048,119.1534,-0.8867714,0.9798071,2.162528
124.355,170.9029,-0.9327984,0.9799718,2.162528
124.4045,169.7586,-1.009511,0.9798071,2.162528
124.4543,160.4767,-1.301016,0.9798071,2.156069
124.5055,155.7722,-1.450603,0.9798071,2.156069
124.5543,138.8615,-1.485124,0.9798071,2.156069
124.6052,129.4525,-1.504302,0.9798071,2.156069
124.6543,131.614,-1.508138,0.9798071,2.162528
124.7043,132.3769,-1.519644,0.9798071,2.162528
124.7555,122.0779,-1.511973,0.9799718,2.156069
124.8049,112.2874,-1.508138,0.9798071,2.156069
124.8543,106.9472,-1.504302,0.9798071,2.162528
124.9043,103.6413,-1.492795,0.9798071,2.162528
124.9553,100.7169,-1.469781,0.9798071,2.156069
125.0063,100.7169,-1.462111,0.9799718,2.156069
125.0551,97.41101,-1.473617,0.9796425,2.156069
125.105,94.48659,-1.477452,0.9798071,2.156069
125.155,92.96081,-1.534987,0.9798071,2.156069
125.2044,91.18073,-1.550329,0.9799718,2.162528
125.2554,116.229,-1.592521,0.9798071,2.156069
125.3054,173.0645,-1.611698,0.9798071,2.156069
125.3552,170.14,-1.646219,0.9798071,2.156069
125.4049,164.4183,-1.638548,0.9798071,2.156069
125.4548,160.8582,-1.650054,0.9799718,2.156069
125.5061,153.4836,-1.650054,0.9798071,2.156069
125.5546,132.3769,-1.657725,0.9798071,2.156069
