t_sec,O11_muM,O12_muM,O21_muM,O23_muM,O32_muM,O33_muM,O34_muM,O42_muM,O44_muM,O45_muM,O53_muM,O54_muM,O56_muM,O64_muM,O65_muM,O66_muM,O75_muM,O77_muM,O86_muM,O87_muM,D11_muM,D12_muM,D21_muM,D23_muM,D32_muM,D33_muM,D34_muM,D42_muM,D44_muM,D45_muM,D53_muM,D54_muM,D56_muM,D64_muM,D65_muM,D66_muM,D75_muM,D77_muM,D86_muM,D87_muM
0.07660373,-0.2233569,0.2872672,-0.5657291,-0.2536086,-0.5136697,-0.8717942,-0.9965354,0.4187014,0.04290785,-0.8428876,-0.2553459,-0.4223391,-0.1416493,-1.015234,-0.5361001,-0.807586,0.1189416,-0.2170157,0.4592423,-0.8352626,0.4630088,0.1104271,0.4630981,0.4580079,0.2354122,0.3206744,0.3948791,0.1548843,0.3309247,-0.2807882,0.6030339,0.711235,0.4502716,0.520159,0.4096311,0.3044175,0.2436601,0.5568256,0.6926513,0.7811002
0.2046028,-0.2645502,0.2437525,-0.6377364,-0.3222899,-0.5775369,-0.9642989,-1.102845,0.3858683,-0.02439023,-0.8622789,-0.3171469,-0.4841458,-0.2044012,-1.148172,-0.6467439,-0.915297,0.05577594,-0.2547124,0.3938986,-0.9159719,0.4497774,0.1160144,0.4648329,0.4595063,0.2292441,0.3185287,0.3894217,0.1397312,0.3286537,-0.2779792,0.6028416,0.7121341,0.449324,0.5202368,0.4117655,0.2793327,0.2416786,0.5438824,0.6920156,0.7795035
0.3326019,-0.2753256,0.1961589,-0.7143584,-0.3931466,-0.6559902,-1.050622,-1.205392,0.338254,-0.1101393,-0.8817529,-0.376264,-0.5512826,-0.2615595,-1.268684,-0.7561045,-1.067398,-0.005301057,-0.3445179,0.3320349,-1.004838,0.4398392,0.1152,0.4636167,0.4591011,0.232896,0.3133695,0.3863685,0.1521442,0.3287813,-0.2776224,0.6027124,0.7108864,0.4435141,0.5183661,0.4094197,0.3183939,0.2411384,0.5425493,0.6953002,0.7831973
0.460601,-0.3539221,0.1434241,-0.7608421,-0.4407209,-0.6808904,-1.097354,-1.268143,0.31326,-0.1389041,-0.889303,-0.3622037,-0.539334,-0.2523443,-1.138684,-0.6662338,-0.9625219,0.06071275,-0.2116512,0.4812604,-0.7665737,0.4339812,0.1140404,0.4607099,0.4602105,0.2208531,0.310347,0.3896569,0.1502656,0.3331243,-0.2761917,0.6038582,0.7111163,0.4460057,0.5212096,0.4212364,0.3138155,0.2404593,0.5468138,0.7064947,0.7867286
0.5886001,-0.2109455,0.1816267,-0.5276677,-0.2582445,-0.5139632,-0.8373737,-0.9363555,0.3697434,0.03370093,-0.8531275,-0.2324914,-0.4022859,-0.111396,-0.808758,-0.3816472,-0.689969,0.1562799,-0.08703861,0.6022022,-0.634699,0.4364956,0.1149716,0.4615698,0.4640556,0.2420883,0.3279588,0.4102799,0.1443775,0.3278325,-0.2765679,0.6091655,0.7231453,0.4512134,0.5358575,0.4219473,0.3107814,0.2491929,0.5294799,0.7078375,0.7919252
0.7165992,-0.139558,0.2417349,-0.4251882,-0.1530149,-0.3919741,-0.6897852,-0.7669976,0.4234107,0.1072444,-0.8382509,-0.1727552,-0.341949,-0.06134157,-0.7148318,-0.3080419,-0.5671656,0.1888328,-0.07006826,0.6085668,-0.6357346,0.4434575,0.1138837,0.4605553,0.4619327,0.2535973,0.332474,0.4186738,0.1390672,0.3391904,-0.2737039,0.6069621,0.719601,0.4487682,0.536461,0.4341498,0.3071418,0.2480686,0.5397906,0.7034456,0.7895488
0.8445983,-0.09384768,0.2625569,-0.4361877,-0.1484739,-0.3793353,-0.7013229,-0.7827287,0.4246068,0.1176219,-0.8335424,-0.1712274,-0.346435,-0.06980887,-0.7412741,-0.3211834,-0.5892823,0.2032568,-0.1111437,0.5963839,-0.6599274,0.4232386,0.1122027,0.4585797,0.4516817,0.2421304,0.3293063,0.4128658,0.1484281,0.3269297,-0.2748109,0.6046484,0.7152813,0.4446272,0.5330266,0.4294432,0.3270928,0.2475092,0.5588786,0.700958,0.7896448
0.9725974,-0.1529336,0.265838,-0.4703245,-0.1706935,-0.3892266,-0.7491601,-0.8329752,0.4301774,0.08799245,-0.8402873,-0.2057014,-0.3799316,-0.1028839,-0.8279934,-0.3860687,-0.6481718,0.1788163,-0.1695282,0.5464206,-0.7217703,0.4461164,0.112594,0.4575444,0.4474151,0.2317374,0.3267983,0.4024509,0.1422915,0.3270066,-0.2702079,0.6034946,0.7185259,0.4465272,0.5298735,0.427062,0.2858386,0.2485055,0.5683613,0.6990698,0.7891443
1.100596,-0.1879605,0.2482714,-0.5294646,-0.2226076,-0.4553504,-0.8273323,-0.9266734,0.4076076,0.0290235,-0.8513383,-0.2540136,-0.4290273,-0.148344,-0.9499653,-0.4949238,-0.7502512,0.1412482,-0.1846085,0.4902293,-0.7981808,0.4396116,0.1130907,0.45952,0.444514,0.2454952,0.321461,0.4009183,0.1468297,0.3340444,-0.271189,0.5993139,0.7153283,0.4449052,0.5267622,0.4317277,0.2854872,0.2487002,0.5493832,0.7012343,0.7905428
1.228596,-0.2226914,0.2179309,-0.5996241,-0.283733,-0.5241112,-0.9075146,-1.013943,0.3743894,-0.0404679,-0.8723078,-0.2988713,-0.4808135,-0.2007793,-1.071933,-0.5940335,-0.9207788,0.095212,-0.2701112,0.4333359,-0.8724874,0.4364468,0.1123944,0.4578904,0.4471834,0.2396535,0.3179936,0.3906841,0.154721,0.337808,-0.2764099,0.5990514,0.7127913,0.439545,0.5254914,0.4261419,0.3249137,0.2448492,0.5749931,0.7035242,0.7918457
1.356595,-0.2714049,0.1798106,-0.6626941,-0.3417829,-0.5800725,-0.9968669,-1.127721,0.3460606,-0.08084419,-0.8820415,-0.354904,-0.5394784,-0.2513495,-1.197335,-0.6954378,-0.9615086,0.04025694,-0.3218565,0.3739922,-0.9578918,0.4306808,0.1152311,0.4575501,0.4455032,0.236291,0.3188474,0.400253,0.1479291,0.329785,-0.2794693,0.5971124,0.7138811,0.4414171,0.531471,0.4260442,0.2991198,0.2488593,0.5696657,0.7051359,0.7947589
1.484594,-0.3509174,0.1346085,-0.7362341,-0.4101848,-0.6514076,-1.078842,-1.218182,0.3307878,-0.1301866,-0.8997191,-0.4124252,-0.5930276,-0.3113054,-1.318513,-0.8047293,-1.067359,-0.01389213,-0.3667026,0.3156372,-1.037745,0.4552377,0.1178548,0.4596137,0.4471062,0.2449637,0.3140426,0.389957,0.1297551,0.3199028,-0.2765186,0.5986184,0.7126524,0.4420278,0.5269526,0.4255634,0.3043523,0.2457187,0.5527939,0.7081104,0.7935147
1.612593,-0.3795188,0.09359266,-0.7335543,-0.4308978,-0.6694565,-1.090091,-1.241962,0.306295,-0.147743,-0.8985276,-0.3805922,-0.5555678,-0.279417,-1.140936,-0.6476194,-0.9500777,0.07285727,-0.2469138,0.4773982,-0.7989785,0.435589,0.1176202,0.4571786,0.4492921,0.2501927,0.3099131,0.3980412,0.1461253,0.3293528,-0.275944,0.6032827,0.7163697,0.4438059,0.5340338,0.4237589,0.3024775,0.2485156,0.57172,0.718246,0.7983777
1.740592,-0.239707,0.1364912,-0.5403035,-0.257908,-0.4873186,-0.8475973,-0.9369681,0.3637691,-0.01383769,-0.8684078,-0.2543045,-0.428555,-0.1540206,-0.8593004,-0.4232917,-0.6461854,0.1778672,-0.1548582,0.5848918,-0.6869472,0.4576423,0.1157746,0.4598837,0.4524262,0.2538924,0.3284651,0.4147453,0.1498459,0.3408419,-0.2720322,0.6067324,0.7167482,0.4479729,0.5443456,0.4438845,0.278296,0.2495252,0.5657209,0.7230138,0.8015737
1.868591,-0.1659432,0.1947006,-0.4516617,-0.1677445,-0.3875455,-0.7341872,-0.8057108,0.3952121,0.04497256,-0.8514906,-0.2118159,-0.3850919,-0.1167515,-0.8018141,-0.3627578,-0.7010916,0.2031383,-0.1178554,0.5867678,-0.6997717,0.4378445,0.1132162,0.4574705,0.4501989,0.2603922,0.3304462,0.4189138,0.1620368,0.3470106,-0.2696833,0.6047109,0.7181466,0.4462846,0.543419,0.4386857,0.3521029,0.2542023,0.5450474,0.7154164,0.7987515
1.99659,-0.1853541,0.2043061,-0.4552391,-0.1624444,-0.3777211,-0.7466477,-0.8224108,0.4374745,0.06216179,-0.8434731,-0.2145217,-0.3919278,-0.1283928,-0.8197833,-0.3708794,-0.676158,0.2124735,-0.1438561,0.5698368,-0.7300039,0.4567266,0.1193426,0.4529299,0.4397259,0.2573088,0.3274474,0.4167608,0.1510961,0.3356197,-0.2746079,0.6016872,0.7155984,0.4461016,0.5334766,0.4337439,0.3298454,0.2545063,0.5537239,0.7120248,0.7967941
2.124589,-0.1992182,0.2121806,-0.489373,-0.1883862,-0.4072343,-0.7963272,-0.879011,0.4226223,0.0267506,-0.8478708,-0.2464313,-0.4180812,-0.1542949,-0.911982,-0.4477998,-0.760664,0.1873208,-0.1766169,0.5262823,-0.7941886,0.4557186,0.113731,0.451579,0.4365142,0.2573316,0.3231653,0.4075349,0.1498125,0.3407365,-0.2707953,0.5989907,0.7150342,0.4454633,0.5357416,0.4448203,0.3253188,0.2560475,0.5709668,0.7091734,0.7990212
2.252588,-0.2596907,0.1931236,-0.5433173,-0.2289944,-0.4603593,-0.8688068,-0.9627199,0.3907302,-0.0251993,-0.8522543,-0.2927591,-0.4590124,-0.2031462,-1.028371,-0.5310186,-0.8636062,0.1554914,-0.2138966,0.4731795,-0.8546466,0.4605534,0.117035,0.4528771,0.4309754,0.2576952,0.3191596,0.3987736,0.1547487,0.3432876,-0.2747096,0.5969389,0.7113622,0.4463856,0.5318268,0.431228,0.3179609,0.2546906,0.5542706,0.7070387,0.7935304
2.380587,-0.2811388,0.1665771,-0.6022329,-0.2855876,-0.514958,-0.9502138,-1.058883,0.3896199,-0.06498961,-0.8673919,-0.33653,-0.5164684,-0.2462842,-1.142421,-0.6172875,-0.9720392,0.1110946,-0.2406226,0.420043,-0.9237233,0.443091,0.1184496,0.4539261,0.4315237,0.2585189,0.3187284,0.4001417,0.1485892,0.3310383,-0.2739576,0.5946878,0.7162386,0.4454668,0.5302511,0.4279091,0.3308248,0.2542495,0.542823,0.7084765,0.7955829
2.508586,-0.3074229,0.1304163,-0.6578902,-0.3392077,-0.5754366,-1.028379,-1.14777,0.3458892,-0.1250808,-0.8831108,-0.3862362,-0.5622442,-0.2875049,-1.257195,-0.7165219,-1.075052,0.05852629,-0.3189563,0.3652569,-1.004108,0.4532767,0.1209071,0.4510699,0.4265895,0.2575239,0.3147331,0.3974054,0.1691421,0.3341957,-0.2708499,0.5947522,0.7108331,0.4428202,0.5297809,0.4262649,0.3468006,0.2550313,0.5489951,0.708005,0.7986798
2.636586,-0.3225916,0.08950801,-0.7262824,-0.3980033,-0.630065,-1.097183,-1.239088,0.3163991,-0.1756894,-0.8958358,-0.4087197,-0.5939234,-0.3118289,-1.246055,-0.7102208,-1.053875,0.09895209,-0.2513507,0.4601306,-0.8542337,0.4226693,0.1218505,0.453512,0.4281592,0.2525924,0.3110334,0.3975735,0.1644694,0.3342869,-0.2738042,0.5956998,0.7152809,0.445518,0.5273267,0.4338969,0.3151686,0.252047,0.5504367,0.7150633,0.8010125
2.764585,-0.2633689,0.1098525,-0.5284605,-0.2534083,-0.476803,-0.8830236,-0.9765471,0.3806629,-0.03804906,-0.8642302,-0.2809651,-0.4554665,-0.18161,-0.9181081,-0.4325507,-0.8119252,0.2046837,-0.1513876,0.5811229,-0.7282264,0.4529459,0.1221829,0.4527618,0.4323407,0.2606972,0.31971,0.4177291,0.1664843,0.346422,-0.265182,0.601482,0.7201504,0.4487839,0.5336665,0.4326423,0.3257211,0.2596804,0.5636988,0.7194505,0.805426
2.892584,-0.1503706,0.171968,-0.4146552,-0.1365964,-0.3466665,-0.7307268,-0.8018379,0.4362611,0.04462539,-0.8326846,-0.2112764,-0.3850736,-0.11638,-0.8080316,-0.3333623,-0.6685035,0.2497732,-0.116461,0.6041382,-0.7144786,0.4337412,0.118366,0.4496587,0.4289244,0.2651584,0.3275714,0.4215992,0.168782,0.3559278,-0.2647041,0.6004012,0.7166644,0.4493482,0.5389153,0.4440716,0.3070699,0.2606,0.5470158,0.7120699,0.7996149
3.020583,-0.1531429,0.1987007,-0.4212196,-0.1243239,-0.3270243,-0.7324269,-0.8022514,0.4501301,0.05610461,-0.8261938,-0.2115113,-0.3884377,-0.1269549,-0.8299317,-0.3282309,-0.6565547,0.2728829,-0.1334169,0.5998886,-0.729385,0.4425838,0.1181967,0.4458008,0.4212476,0.2573928,0.3238811,0.4138948,0.1750761,0.3406793,-0.2654591,0.5966568,0.7178658,0.4512965,0.5375165,0.4376912,0.3085368,0.2588234,0.5736828,0.7080724,0.7997752
3.148582,-0.1528705,0.2051559,-0.4441024,-0.1343396,-0.3475028,-0.7647699,-0.8360408,0.4553118,0.04853746,-0.8218748,-0.2293604,-0.4032293,-0.140749,-0.8990886,-0.384278,-0.7614202,0.2528192,-0.1604464,0.5639294,-0.7787048,0.4269535,0.118748,0.4435864,0.4140183,0.2611609,0.3209272,0.4071138,0.1837778,0.3413577,-0.2675475,0.5968564,0.711674,0.4479757,0.5329793,0.4318065,0.3278418,0.2637834,0.5768823,0.7020439,0.7995364
3.276581,-0.2011519,0.1989468,-0.4929501,-0.1733407,-0.3847322,-0.8289755,-0.9152228,0.4603093,0.01469807,-0.825146,-0.2652147,-0.4458643,-0.1760439,-1.006979,-0.4683922,-0.7936229,0.2227284,-0.2068795,0.513203,-0.840269,0.4343778,0.1185652,0.443953,0.4102193,0.2545526,0.3159757,0.4015364,0.1760837,0.3359404,-0.2686678,0.5915945,0.7129696,0.4467809,0.5296789,0.4341872,0.3009993,0.2595135,0.5629485,0.7002022,0.7973847
3.40458,-0.2435363,0.1758482,-0.5517816,-0.2175528,-0.4258941,-0.8996812,-1.003433,0.4338196,-0.03530934,-0.8375233,-0.3121157,-0.4919993,-0.2202704,-1.116051,-0.5606493,-0.9206139,0.175359,-0.2412355,0.4663864,-0.9040989,0.4407379,0.1212095,0.4427969,0.404605,0.2420375,0.3111152,0.3984594,0.1741503,0.3402807,-0.2651155,0.5928897,0.7142457,0.446301,0.5285099,0.4339816,0.3156309,0.262363,0.5485722,0.7005346,0.7990785
3.532579,-0.2526983,0.1466272,-0.608364,-0.2690533,-0.4880158,-0.9812272,-1.094313,0.3932745,-0.09335603,-0.8499282,-0.3536099,-0.5390213,-0.2629836,-1.215578,-0.6391759,-1.007425,0.1311143,-0.2905414,0.4193715,-0.970364,0.4306918,0.1201204,0.4441711,0.4021494,0.2503843,0.3120534,0.3983604,0.188623,0.3410722,-0.2681399,0.5916737,0.7159851,0.4456572,0.5233825,0.4235493,0.3043977,0.2585397,0.5560756,0.6996642,0.7988094
3.660578,-0.3716809,0.1178555,-0.672928,-0.3211787,-0.5548376,-1.054626,-1.18293,0.371916,-0.1531305,-0.866667,-0.4038621,-0.5880836,-0.3065734,-1.313854,-0.7192833,-1.155865,0.09861211,-0.3131353,0.4335833,-0.9395903,0.4859418,0.1173694,0.4394668,0.398257,0.2495598,0.308658,0.3951581,0.1793339,0.3472231,-0.2626187,0.5936559,0.7171078,0.4470649,0.5260701,0.4229101,0.3510572,0.2562473,0.5534558,0.7026743,0.8007259
3.788578,-0.3370066,0.1070268,-0.5328423,-0.2459747,-0.4599212,-0.9277343,-1.021822,0.4112376,-0.04499901,-0.8411214,-0.2893879,-0.4693228,-0.1964404,-0.9735399,-0.453752,-0.858888,0.2329316,-0.1573644,0.5991272,-0.7445729,0.47862,0.1233837,0.4389732,0.4043191,0.2539403,0.312266,0.4078368,0.1673534,0.340353,-0.268126,0.5990039,0.7205855,0.4484793,0.5355148,0.4377664,0.3217783,0.2605447,0.5551966,0.7118697,0.8044224
3.916577,-0.1881725,0.1730222,-0.377716,-0.08719707,-0.2875582,-0.7009888,-0.7630142,0.4886074,0.08549166,-0.8009866,-0.1747012,-0.3454091,-0.07631704,-0.726474,-0.2311248,-0.639317,0.3237849,-0.0959631,0.6937765,-0.6664712,0.4449543,0.1238303,0.4379413,0.4043152,0.2611115,0.3231431,0.4176366,0.1695549,0.3462132,-0.2590178,0.6004688,0.7205384,0.4509925,0.5400068,0.4492829,0.3358847,0.2675656,0.5676863,0.7071105,0.8019718
4.044576,-0.1406388,0.2399605,-0.3335626,-0.02150813,-0.205568,-0.643627,-0.6895769,0.5293646,0.1325218,-0.7906981,-0.1507771,-0.3202289,-0.05877195,-0.7158566,-0.2100644,-0.5758377,0.3464813,-0.1198896,0.6973245,-0.6698503,0.4547177,0.1223534,0.4354447,0.3969788,0.2554891,0.3243167,0.4141596,0.1771309,0.346174,-0.2577558,0.5977089,0.7193068,0.4503872,0.5386342,0.4431471,0.3106217,0.2649039,0.5742589,0.6961529,0.7992725
4.172575,-0.1123995,0.2680261,-0.3347813,-0.01227554,-0.1948003,-0.6434842,-0.6948324,0.5502511,0.1372865,-0.7869624,-0.150482,-0.3195387,-0.06356379,-0.7493284,-0.2348168,-0.5949643,0.3427297,-0.06779046,0.6684523,-0.7010231,0.4572375,0.1211173,0.432864,0.3883194,0.2520547,0.3200961,0.4077713,0.1861047,0.3469079,-0.2569412,0.5963197,0.7183656,0.4456106,0.5344016,0.4385847,0.3148097,0.2667356,0.5451246,0.6923751,0.7960765
4.300574,-0.1341662,0.277836,-0.3703699,-0.03325014,-0.2186192,-0.6990564,-0.7590432,0.5545101,0.1066229,-0.7824004,-0.180977,-0.3471412,-0.09463077,-0.8334162,-0.3006288,-0.6787913,0.3156954,-0.1173653,0.6275378,-0.7542284,0.4511311,0.123824,0.4344626,0.379729,0.2595589,0.3155879,0.4030108,0.1786689,0.3485065,-0.2639603,0.5931531,0.7172496,0.4457126,0.5293142,0.4370864,0.3079216,0.2672219,0.5572126,0.6868536,0.7935585
4.428573,-0.1548583,0.2715067,-0.4240917,-0.07718922,-0.271624,-0.7737992,-0.8389249,0.5448378,0.06044497,-0.7959166,-0.2221774,-0.3849463,-0.1322266,-0.9410593,-0.3868896,-0.8196163,0.2766664,-0.1930647,0.5842256,-0.811323,0.4389122,0.1244481,0.4330458,0.3753062,0.2534721,0.313814,0.4007695,0.1905443,0.348369,-0.2601688,0.5910225,0.7143526,0.4427862,0.527137,0.435149,0.3367914,0.2673729,0.5580297,0.6859409,0.79305
4.556572,-0.1937506,0.2476192,-0.4766422,-0.1221384,-0.3163604,-0.8408986,-0.9244068,0.5128911,0.00217598,-0.8060224,-0.2632954,-0.4283141,-0.1717764,-1.05155,-0.4648694,-0.8553854,0.2302763,-0.2268719,0.5365666,-0.8718018,0.4507287,0.1264263,0.4270868,0.3716527,0.2468861,0.3080328,0.3974478,0.1893438,0.3597944,-0.2653861,0.5921416,0.7135199,0.4414112,0.530551,0.4271976,0.3195222,0.2653461,0.5586963,0.6840432,0.7913501
4.684571,-0.255874,0.2241563,-0.5417117,-0.1750253,-0.3894479,-0.9118456,-1.009324,0.4752308,-0.02606334,-0.8175858,-0.3053426,-0.4779565,-0.2170975,-1.147589,-0.5555472,-0.9325517,0.1806066,-0.2630599,0.4868143,-0.939716,0.4648163,0.1278491,0.4308651,0.3710189,0.2567019,0.3041533,0.3935764,0.1942056,0.3450796,-0.263334,0.5873392,0.714884,0.4415516,0.5239385,0.4250455,0.2950968,0.2594676,0.5358493,0.6828467,0.7929063
4.81257,-0.2858648,0.1901702,-0.6044837,-0.2256461,-0.4417386,-0.9910647,-1.094329,0.4704011,-0.07858247,-0.821636,-0.3430694,-0.5105207,-0.2442366,-1.179831,-0.5914863,-0.992633,0.1921032,-0.2586654,0.5571326,-0.832371,0.4309806,0.1294677,0.4328616,0.3683357,0.2521567,0.3038539,0.3897339,0.173849,0.3477976,-0.2620265,0.5904552,0.7150628,0.4387525,0.5230389,0.4313568,0.3113939,0.2622524,0.5615547,0.6898167,0.7921981
4.940569,-0.2376285,0.2107596,-0.4129284,-0.0907746,-0.2889585,-0.7827634,-0.8377942,0.5184453,0.04625056,-0.7983136,-0.1993254,-0.3575043,-0.1071424,-0.806272,-0.2825307,-0.6686699,0.3138707,-0.1435876,0.7260817,-0.6587886,0.4791593,0.1286729,0.4292648,0.3702463,0.2596912,0.3126637,0.4087185,0.1923293,0.3621724,-0.2550946,0.5954028,0.7186939,0.4431276,0.5381643,0.4413527,0.3040475,0.2647111,0.5631726,0.6899861,0.7948793
5.068568,-0.07497654,0.287121,-0.2649191,0.06035686,-0.1195245,-0.5708416,-0.6073183,0.5974112,0.1831052,-0.7608297,-0.09659137,-0.249683,-0.001751053,-0.6033759,-0.1014137,-0.4917801,0.3784402,-0.08814453,0.7830117,-0.6094279,0.4335034,0.1314296,0.4301099,0.3698281,0.2640875,0.3225438,0.4189405,0.1893919,0.3598655,-0.2523367,0.6001977,0.7241699,0.4464931,0.5485094,0.4489489,0.3263179,0.2712449,0.5660146,0.6855172,0.7922714
5.196568,-0.05363271,0.3546051,-0.2459946,0.1018456,-0.06637593,-0.5437603,-0.568766,0.6418428,0.213329,-0.7466113,-0.08359446,-0.2283904,0.004390501,-0.6016957,-0.09493386,-0.5328655,0.3969483,-0.06350262,0.7838909,-0.6103286,0.4545863,0.1289296,0.4273524,0.3595985,0.2670014,0.3213401,0.4169585,0.1858105,0.3632762,-0.2577761,0.5946962,0.7232482,0.4455158,0.5430732,0.4455237,0.3286347,0.2713432,0.5577141,0.6778356,0.7897285
5.324566,-0.03893127,0.3856924,-0.2512879,0.107593,-0.05306388,-0.5599394,-0.5781329,0.6560599,0.2083645,-0.7490439,-0.09076668,-0.2305878,-0.006436158,-0.6462976,-0.1303829,-0.5493194,0.3815429,-0.1028314,0.7489895,-0.6453301,0.4485872,0.1292473,0.4221362,0.3509433,0.2558922,0.3184088,0.4081153,0.1878791,0.369487,-0.2555886,0.5905133,0.7161015,0.4393714,0.5392477,0.4413879,0.3206735,0.2728918,0.568216,0.6724526,0.7877229
5.452566,-0.04766626,0.3944918,-0.2913398,0.0794292,-0.08564532,-0.6213219,-0.6464279,0.6563612,0.1974738,-0.7491,-0.1276392,-0.2616996,-0.03866357,-0.7405378,-0.211521,-0.5923904,0.3488817,-0.1013705,0.702355,-0.696992,0.4532947,0.1313246,0.4207014,0.3427519,0.2582988,0.3143888,0.4059663,0.1857543,0.3507648,-0.2592764,0.590086,0.7147655,0.4354973,0.5342596,0.4398272,0.3141298,0.2713718,0.5415668,0.6688464,0.783748
5.580565,-0.1079005,0.3809723,-0.3504147,0.03454696,-0.1345353,-0.6873111,-0.727312,0.6503107,0.1407244,-0.7687957,-0.1608569,-0.3084895,-0.08223469,-0.8459227,-0.3008977,-0.7330856,0.3041224,-0.1539032,0.6579269,-0.7578248,0.4692675,0.1320493,0.4180426,0.3392836,0.250596,0.3074816,0.4012196,0.1768074,0.3627723,-0.2578314,0.5858552,0.7167398,0.4330457,0.5327731,0.4296576,0.3370631,0.2719675,0.5555515,0.66914,0.7858911
5.708564,-0.1207526,0.3585489,-0.4179839,-0.01151865,-0.195827,-0.7589733,-0.8155599,0.6051458,0.1033238,-0.7870367,-0.2044524,-0.3478853,-0.1233712,-0.9510971,-0.3859027,-0.8065915,0.2540917,-0.2433165,0.608304,-0.8140651,0.4380219,0.1336697,0.4190948,0.3317663,0.2500249,0.3029531,0.3977809,0.1838323,0.3490351,-0.2624327,0.5859355,0.7131636,0.4318527,0.529699,0.429254,0.3197955,0.2713504,0.5810723,0.6684113,0.785593
5.836563,-0.1728679,0.3326556,-0.4747798,-0.06458513,-0.2517325,-0.8350296,-0.9002872,0.5790905,0.05688395,-0.8102555,-0.2497954,-0.3912016,-0.169877,-1.052586,-0.4977324,-0.85411,0.2025645,-0.2751618,0.5570562,-0.8802094,0.4515653,0.1354351,0.4193712,0.331645,0.2483906,0.3024939,0.3897024,0.1879984,0.3580756,-0.2603728,0.5891634,0.7149697,0.4320941,0.5282237,0.4291005,0.291762,0.2641426,0.5672512,0.665651,0.7889116
5.964562,-0.2313063,0.2971477,-0.5546848,-0.1246676,-0.3263831,-0.909733,-0.98994,0.5421916,-0.005400896,-0.8356255,-0.2846605,-0.4420913,-0.2059207,-1.087932,-0.5281815,-0.9180748,0.215607,-0.2207332,0.6292872,-0.7650422,0.4603163,0.1367842,0.4170661,0.3302767,0.2447846,0.3000599,0.3891849,0.1763419,0.3580633,-0.2732465,0.5884793,0.7176142,0.4289757,0.5289813,0.4186395,0.3249318,0.2652069,0.556317,0.6713302,0.7878492
6.092561,-0.1845682,0.3140666,-0.3847083,0.02257843,-0.1792001,-0.6805342,-0.7181045,0.6056982,0.1537004,-0.8072739,-0.152044,-0.286401,-0.07385803,-0.6956178,-0.2435761,-0.6205036,0.3346573,-0.08620706,0.7909961,-0.5948507,0.4768368,0.130808,0.4060163,0.3348233,0.2502272,0.3105362,0.4060772,0.1896738,0.3567304,-0.2677053,0.5941104,0.7203531,0.4330221,0.5427852,0.435117,0.3418608,0.2728865,0.55531,0.677975,0.7946607
6.22056,-0.06750815,0.3986545,-0.2659616,0.1716727,-0.0002145668,-0.4618977,-0.4818753,0.6847819,0.2863345,-0.7770311,-0.03632478,-0.159077,0.04162476,-0.4742364,-0.07802457,-0.4141198,0.392931,-0.05320623,0.8381782,-0.5440764,0.4760038,0.1303514,0.3975047,0.3347822,0.2585559,0.3246788,0.4182509,0.192232,0.3614908,-0.2702202,0.5985499,0.7240484,0.4351681,0.5528367,0.4408959,0.335725,0.2734385,0.5601968,0.6736949,0.7909085
6.348559,0.001383715,0.4684398,-0.2321655,0.2085099,0.05389066,-0.4238612,-0.4251792,0.7146032,0.3288195,-0.779572,-0.01693264,-0.1360156,0.04584619,-0.4628244,-0.06809062,-0.4375503,0.4050456,-0.04782017,0.839978,-0.5380508,0.4430348,0.134743,0.4021277,0.3287573,0.2580502,0.3235219,0.4122007,0.1728132,0.3591334,-0.2816097,0.5950946,0.7195643,0.4291956,0.5455099,0.4307869,0.3343193,0.2733786,0.5789774,0.6684847,0.7886612
6.476558,0.02183313,0.4995984,-0.2376615,0.2206906,0.05703974,-0.437501,-0.4459067,0.7239041,0.3318445,-0.7706752,-0.03210823,-0.1393764,0.03665244,-0.5192618,-0.09323021,-0.4516924,0.3928424,-0.072046,0.8073995,-0.5796115,0.4317992,0.1346685,0.4013536,0.3215096,0.2601377,0.3223808,0.413808,0.1746463,0.3578226,-0.2751158,0.5909535,0.7196164,0.4309575,0.5458209,0.43413,0.3326939,0.2740816,0.5762504,0.6605855,0.7839335
6.604558,-0.01363716,0.4974742,-0.2876484,0.1942405,0.01907768,-0.483814,-0.4977948,0.7263075,0.292512,-0.7792452,-0.05813587,-0.1672347,-0.007888598,-0.602118,-0.1771849,-0.5671972,0.3726234,-0.08364845,0.7604399,-0.627782,0.4582381,0.1346961,0.396787,0.3150173,0.248676,0.3174717,0.4096501,0.1866607,0.3718926,-0.274915,0.5884976,0.7188038,0.4264868,0.542033,0.4319821,0.3693911,0.2781595,0.5520414,0.6627379,0.7861664
6.732557,-0.07326043,0.4857119,-0.3545688,0.1498836,-0.03784356,-0.5583237,-0.5824549,0.7003176,0.2601861,-0.7623021,-0.09254023,-0.2056201,-0.04450532,-0.7108901,-0.2567278,-0.600825,0.3398084,-0.1282337,0.7013,-0.6913178,0.4720518,0.1362112,0.3958484,0.3142053,0.2417089,0.3132956,0.4027008,0.2001631,0.3593854,-0.2652577,0.5854304,0.7192525,0.4289363,0.5418955,0.4313913,0.3464537,0.2790431,0.569167,0.6660077,0.782508
6.860556,-0.07760463,0.4589126,-0.4137782,0.09450611,-0.1013283,-0.6363658,-0.6675505,0.6603613,0.2029366,-0.7652324,-0.1331112,-0.2434063,-0.07692071,-0.8131086,-0.3475716,-0.6828648,0.2800514,-0.2112398,0.6352051,-0.7602314,0.443656,0.1346178,0.3970845,0.3122176,0.2390463,0.3132999,0.4034701,0.202931,0.3600282,-0.2665088,0.5885783,0.7185271,0.4342704,0.5381389,0.4367383,0.3254109,0.271482,0.564271,0.6538745,0.7797174
6.988555,-0.1263731,0.4309458,-0.4587188,0.03180059,-0.1577924,-0.7137423,-0.7555493,0.6233262,0.1687407,-0.8232973,-0.1744159,-0.2886815,-0.1327968,-0.9243544,-0.4536534,-0.8320014,0.2227233,-0.2335366,0.5984977,-0.8085242,0.4486918,0.1406838,0.4006313,0.3062865,0.2436281,0.3081918,0.3964603,0.176429,0.3498018,-0.2833239,0.5920247,0.7152696,0.4322225,0.5378283,0.427885,0.3469824,0.2728312,0.5555993,0.6567392,0.7784057
7.116554,-0.1307317,0.4025376,-0.4364278,0.05748073,-0.1523283,-0.6500965,-0.6949587,0.6531241,0.2074589,-0.7457454,-0.1156795,-0.2179564,-0.05742715,-0.6558447,-0.2473978,-0.5864175,0.3750426,-0.1473716,0.7749762,-0.5913661,0.439321,0.1345101,0.3897688,0.3042618,0.2380985,0.3120797,0.4150868,0.2269607,0.3735881,-0.2574926,0.5916145,0.7239641,0.4307007,0.5483773,0.438031,0.3342422,0.2864111,0.5745335,0.6691818,0.7799332
7.244553,-0.05862499,0.461654,-0.3096673,0.2006612,-0.01537839,-0.4162501,-0.4241936,0.7260382,0.3473493,-0.6653196,0.01462035,-0.08854789,0.07544807,-0.4099734,-0.05793795,-0.3661673,0.4187398,-0.03070529,0.8874837,-0.4809802,0.4591007,0.1385359,0.3816025,0.3039541,0.2395424,0.3289395,0.4265756,0.2365865,0.3719901,-0.2523846,0.6031433,0.7259922,0.4397509,0.5614052,0.4453802,0.3379346,0.2775964,0.5631192,0.6791301,0.7827823
7.372552,0.05463825,0.5340269,-0.1584984,0.2849475,0.06553093,-0.3271062,-0.2987637,0.7476274,0.3983558,-0.7133101,0.05208432,-0.05830856,0.1069689,-0.3868979,-0.06070519,-0.3625291,0.4402224,0.007016947,0.9032218,-0.3972661,0.4903081,0.1303688,0.3918178,0.3068125,0.2436009,0.328546,0.4294476,0.2227142,0.369178,-0.2705536,0.5993555,0.7166716,0.4430788,0.5589442,0.4312593,0.3458146,0.289391,0.5716268,0.6886787,0.7996702
7.500551,0.3650281,0.5914495,0.08714721,0.2972866,0.07631886,-0.3724802,-0.3227735,0.7637739,0.3981103,-0.6593921,0.06425004,-0.07229152,0.1150472,-0.4383231,-0.08059125,-0.4156338,0.4953758,0.3718481,0.8807617,-0.09317651,0.5692284,0.1387385,0.4321266,0.3012189,0.2385951,0.3211704,0.4205235,0.2171805,0.3649651,-0.2458359,0.6074867,0.714635,0.4490295,0.5520202,0.4334421,0.3285064,0.3093613,0.7060853,0.7000371,0.8527645
7.62855,0.5249513,0.6218023,0.2684347,0.2721412,0.03528932,-0.4721925,-0.4144663,0.7925194,0.3570071,-0.5585355,0.03047673,-0.1138012,0.07381978,-0.5710855,-0.1442365,-0.5468969,0.4781294,0.6986377,0.8340898,0.04553633,0.597699,0.1549983,0.4932411,0.2898636,0.2461359,0.3107498,0.4204785,0.2272646,0.3599931,-0.2102375,0.6037157,0.7054026,0.4513011,0.5434855,0.4469906,0.3538612,0.3262206,0.8467607,0.7094737,0.8764379
7.756549,0.5524707,0.5853145,0.275436,0.2482443,-0.04612485,-0.5278128,-0.492123,0.7462535,0.2937075,-0.6661237,-0.02074757,-0.1747811,0.003920679,-0.6749784,-0.2862636,-0.5845866,0.4087154,0.6806821,0.7750378,0.02382047,0.6374692,0.1461733,0.503937,0.2949989,0.2317251,0.3031661,0.4183074,0.2040784,0.3516266,-0.2288415,0.6017702,0.7040472,0.444305,0.5369508,0.4167724,0.329746,0.315713,0.8306665,0.7111591,0.8687719
7.884549,0.6147984,0.5732682,0.2734424,0.1801948,-0.07937268,-0.5801911,-0.5575429,0.6569955,0.2609475,-0.8441973,-0.05985817,-0.2099853,-0.04879315,-0.7351829,-0.4116811,-0.6646273,0.2984631,0.535159,0.7140856,-0.1174159,0.6838813,0.1458626,0.5069144,0.2868224,0.23841,0.2991352,0.399869,0.1605261,0.3371786,-0.2945407,0.6045002,0.701165,0.4412516,0.5332815,0.4080681,0.3524507,0.2943838,0.7807518,0.7095646,0.8577545
8.012547,0.6121375,0.5690942,0.2171303,0.1023082,-0.09757494,-0.6610863,-0.6439182,0.602522,0.219324,-0.9225848,-0.1034241,-0.2358312,-0.09435883,-0.8092755,-0.4428171,-0.7360612,0.2286751,0.3164364,0.6623036,-0.2911618,0.6453801,0.1565126,0.5070359,0.2752445,0.2619982,0.2979396,0.3973061,0.1315527,0.3411099,-0.3051901,0.6095416,0.7072521,0.438677,0.5354964,0.4128494,0.3392484,0.2824966,0.7074034,0.7053958,0.8393069
8.140547,0.5337588,0.5335015,0.1982293,0.09975915,-0.0906822,-0.6381037,-0.6062193,0.6921853,0.2671514,-0.6816496,-0.0615075,-0.1535215,-0.01408508,-0.5915462,-0.1712173,-0.5265058,0.3838469,0.2800188,0.8150928,-0.169441,0.6345393,0.1597715,0.4966395,0.2779224,0.2540995,0.2998182,0.4139376,0.2043394,0.3581847,-0.2297542,0.6076157,0.7218822,0.4482256,0.5487134,0.4697134,0.3227789,0.3018506,0.6699439,0.7094744,0.8231857
8.268546,0.6331148,0.5808936,0.3397821,0.2504997,0.0657106,-0.3878419,-0.3343745,0.7573963,0.4051739,-0.4993456,0.05876956,-0.01174334,0.1142754,-0.3398996,0.1002404,-0.3424068,0.5234052,0.3013189,0.9009423,-0.1128049,0.5939441,0.1554634,0.5006576,0.2840574,0.2720906,0.3121526,0.4278159,0.2422873,0.3717422,-0.1690116,0.6088173,0.7300778,0.4621299,0.5597733,0.4876104,0.3712296,0.318069,0.6564654,0.6978793,0.8089368
8.396544,0.5493163,0.6257251,0.3196792,0.3047622,0.07602092,-0.3116734,-0.2511231,0.9321138,0.4639302,-0.01344662,0.09077062,0.04008617,0.1456373,-0.307278,0.1236919,-0.2844524,0.6200432,0.2669044,0.8795634,-0.2151641,0.5606773,0.1567395,0.484028,0.2689108,0.2624728,0.3211636,0.4381107,0.3774692,0.4281477,-0.08910544,0.6017449,0.7380483,0.4552446,0.5649686,0.4828824,0.358431,0.3367558,0.6591243,0.6873455,0.7732963
8.524544,0.3988336,0.6119366,0.2222441,0.2912159,-0.01029182,-0.3698234,-0.3299592,0.9813922,0.4285191,0.3032255,0.07230005,0.03411716,0.136992,-0.3656292,0.08808324,-0.3283767,0.6175562,0.1912491,0.8475289,-0.3604576,0.4999704,0.1637599,0.4711094,0.2553174,0.2351464,0.316258,0.4320954,0.4265815,0.4491457,-0.009775306,0.5867619,0.7412597,0.4533946,0.5608744,0.4777952,0.3721016,0.3353979,0.6414923,0.676835,0.749095
8.652543,0.3236126,0.5609573,0.1042068,0.2699706,-0.1214174,-0.449001,-0.4415355,0.9273866,0.371323,0.4234553,0.02021044,-0.009097178,0.1005224,-0.4884472,0.02100281,-0.4673671,0.5583957,0.09084877,0.7735034,-0.4983067,0.4260101,0.1594073,0.4638289,0.2545394,0.215488,0.309109,0.425837,0.4628227,0.4370064,0.02777289,0.575074,0.7408786,0.451928,0.554239,0.4646769,0.3922909,0.3251997,0.6193042,0.6693127,0.7343333
8.780542,0.1915254,0.481731,-0.01935641,0.2196885,-0.1981874,-0.5210084,-0.5415992,0.7920411,0.2850706,0.144982,-0.0154263,-0.07642023,0.03434693,-0.5934983,-0.1407407,-0.5550922,0.347107,-0.0292972,0.6879179,-0.535747,0.4329692,0.1378295,0.4500111,0.252468,0.2040196,0.3012833,0.4070143,0.3448009,0.399964,-0.0543615,0.5812554,0.726208,0.4452808,0.5323141,0.4485501,0.3433414,0.2701473,0.5972816,0.6639677,0.7507603
8.908542,0.1189644,0.4480608,-0.03365872,0.1648482,-0.1444836,-0.5662584,-0.5804431,0.5640368,0.2404949,-0.4699641,-0.05146436,-0.1226389,-0.0161438,-0.6405275,-0.2509976,-0.595046,0.2166608,-0.114104,0.6241407,-0.569987,0.4897764,0.1241407,0.4519227,0.2501247,0.2345719,0.2954614,0.39473,0.1555443,0.3390086,-0.1892694,0.5854543,0.7099312,0.4419524,0.5260395,0.4447228,0.3305874,0.2444057,0.597258,0.6639875,0.7662449
9.03654,0.1356992,0.4471561,-0.0806491,0.1225025,-0.1640809,-0.6200721,-0.6306875,0.5063715,0.20254,-0.6769108,-0.09830181,-0.1664993,-0.06707489,-0.6380726,-0.3138999,-0.6787267,0.200672,-0.01737337,0.6899797,-0.4486678,0.4856996,0.1345042,0.4581752,0.2614194,0.2518824,0.2941847,0.3934928,0.1295762,0.3303324,-0.2445232,0.5855521,0.7098445,0.4346464,0.5247215,0.4136724,0.367827,0.2344467,0.5595065,0.6753734,0.7727757
9.164539,0.1652467,0.4624413,0.01442043,0.2327365,-0.006496245,-0.3849989,-0.356049,0.547528,0.3503582,-0.7740257,0.02244814,-0.01134271,0.06665008,-0.2506306,-0.0428374,-0.3168246,0.29925,0.09738916,0.8427971,-0.275885,0.5107732,0.132835,0.4326375,0.2722731,0.2586638,0.3082737,0.4102638,0.1232299,0.3301998,-0.282472,0.592346,0.7192454,0.4404172,0.5457516,0.412751,0.3518045,0.23997,0.574357,0.6954907,0.7834793
9.292539,0.3017695,0.5275361,0.122514,0.3405634,0.1304134,-0.1968528,-0.1223372,0.6174905,0.5024737,-0.7330313,0.1134399,0.1152137,0.1689881,-0.0540764,0.1176541,-0.1267549,0.3550072,0.1387266,0.8749799,-0.2516929,0.4813836,0.1347866,0.4315195,0.2729846,0.273459,0.322305,0.4288853,0.1126096,0.3245183,-0.2814593,0.5923401,0.7216782,0.4432245,0.5572233,0.4285062,0.3469893,0.2394193,0.5741775,0.6891366,0.78013
9.420538,0.2801495,0.5712552,0.1323543,0.3371862,0.1597866,-0.1976311,-0.1073884,0.6222848,0.5038496,-0.7491975,0.1047986,0.1220485,0.1490955,-0.05066756,0.1149662,-0.1330639,0.3431578,0.1567422,0.8505856,-0.2719846,0.5069684,0.1346462,0.4396078,0.2679643,0.2802175,0.3215915,0.4257002,0.1013965,0.3318242,-0.2823463,0.5912054,0.7241658,0.4396532,0.549883,0.4317286,0.3533643,0.2406929,0.5585757,0.6872248,0.7787161
9.548536,0.3142907,0.5725122,0.09630485,0.3172635,0.1441771,-0.2243997,-0.129721,0.6307853,0.5116881,-0.764473,0.08599649,0.105774,0.1168546,-0.1054766,0.05197139,-0.1699455,0.3284757,0.1287542,0.7975336,-0.3346493,0.4780062,0.1359394,0.4322635,0.2581763,0.2737743,0.3172958,0.4240345,0.1161185,0.3243702,-0.291824,0.5905633,0.7202814,0.4329962,0.5516556,0.4263426,0.3482616,0.2406367,0.563013,0.6858093,0.7780867
9.676536,0.2288102,0.5586209,0.04901556,0.2574742,0.09811281,-0.3183856,-0.2216762,0.6025677,0.4535233,-0.7455109,0.03338326,0.06630858,0.07414636,-0.2084472,-0.01654648,-0.2718837,0.277016,0.03533239,0.7179058,-0.4068991,0.5178397,0.1390767,0.4387201,0.2528087,0.2769531,0.3122691,0.4160798,0.1045623,0.3289824,-0.2849354,0.5893945,0.7228442,0.4397618,0.5449905,0.4133189,0.336747,0.2401672,0.5827943,0.6839126,0.7766021
9.804535,0.2159315,0.5288242,-0.002486389,0.1805252,0.02367226,-0.4218152,-0.3400397,0.5761432,0.4011508,-0.7654454,-0.01723061,0.008136811,0.01496314,-0.3217531,-0.1200959,-0.3688165,0.2270005,-0.001544557,0.6521379,-0.4787674,0.4850987,0.1394374,0.443469,0.2466176,0.2776678,0.3031598,0.413381,0.09862392,0.3295,-0.2890661,0.5877679,0.7164761,0.4365968,0.5407349,0.4108678,0.315809,0.235783,0.5689571,0.6850102,0.7775444
9.932534,0.1677442,0.484862,-0.06923568,0.1118037,-0.04473139,-0.5220245,-0.438605,0.5230755,0.3440495,-0.7939181,-0.07336698,-0.04485869,-0.03005164,-0.3976452,-0.1766031,-0.461602,0.203919,0.008662502,0.6859282,-0.4183603,0.4807096,0.1438186,0.4443901,0.2432179,0.2773631,0.2989642,0.4076332,0.1015212,0.3233574,-0.2876838,0.5880052,0.717628,0.4365373,0.5363869,0.4108952,0.3367024,0.2323917,0.563275,0.6906178,0.7759871
10.06053,0.2507893,0.486375,0.05925474,0.1993701,0.07016444,-0.3471388,-0.2465888,0.5597901,0.4347885,-0.7816595,0.02482736,0.0724074,0.09155035,-0.07531288,0.08095928,-0.2032485,0.2949543,0.09388994,0.817467,-0.2819393,0.4671618,0.143304,0.4492374,0.2528971,0.2933203,0.303008,0.4238019,0.08361738,0.3367062,-0.2933135,0.5874926,0.7250469,0.4409185,0.5553855,0.4277214,0.3710488,0.2370048,0.5751486,0.7034289,0.7871525
10.18853,0.2777205,0.5333999,0.1565718,0.296217,0.1979278,-0.1811181,-0.0476658,0.5839744,0.5460581,-0.7761223,0.1066497,0.1714343,0.1813536,0.07567436,0.1961435,-0.06715552,0.3327273,0.1067773,0.8365173,-0.2643843,0.4929065,0.1418964,0.4445484,0.2586581,0.2989691,0.3171907,0.4324618,0.09625838,0.33795,-0.2976159,0.5903652,0.7278132,0.4435828,0.568226,0.4360279,0.359912,0.2374247,0.5814936,0.7039176,0.786727
10.31653,0.2966131,0.5523361,0.1466186,0.2926603,0.2089054,-0.1949176,-0.05309398,0.596694,0.5383911,-0.771511,0.09001517,0.1645017,0.1527271,0.04923238,0.1760712,-0.08552693,0.3149385,0.07547212,0.804911,-0.2888274,0.4867615,0.1404359,0.4506456,0.2511435,0.2887643,0.3115041,0.4284951,0.08696469,0.342839,-0.3025653,0.5817438,0.7214792,0.4392919,0.5573256,0.4318137,0.3556979,0.2380597,0.5884069,0.7004507,0.7791885
10.44453,0.2567778,0.5460734,0.1108656,0.2585861,0.1709754,-0.2397233,-0.09449258,0.5627713,0.5106081,-0.7873726,0.05404987,0.1252844,0.1169832,-0.0273414,0.1234162,-0.1173472,0.2892625,0.05964151,0.7374551,-0.3535469,0.4873993,0.1382484,0.4496915,0.2492563,0.2903522,0.3088748,0.4281626,0.1114632,0.3376774,-0.2956813,0.5769141,0.7218096,0.4323158,0.5545006,0.4205868,0.3543267,0.235414,0.5688483,0.6983455,0.7809139
10.57253,0.2220177,0.5139952,0.04194336,0.2049247,0.1109939,-0.3222292,-0.186335,0.5711288,0.4558326,-0.7824061,-0.006646795,0.06896017,0.05498519,-0.1468881,0.02895558,-0.2229775,0.2400443,-0.02239206,0.6631722,-0.4307069,0.4774449,0.1360409,0.4468943,0.2461909,0.2845771,0.3017154,0.419185,0.08344791,0.3333403,-0.3008275,0.571887,0.7191844,0.4326958,0.5465915,0.4218435,0.3499315,0.2313336,0.5862095,0.6965153,0.7783083
10.70053,0.139646,0.467897,-0.03635102,0.1322421,0.02359283,-0.4236331,-0.2945486,0.5205734,0.3781085,-0.8037976,-0.07185757,0.002335894,-0.0128895,-0.2707145,-0.07969948,-0.3729168,0.1774699,-0.09760435,0.5930085,-0.5052331,0.4998156,0.1341171,0.4429197,0.2458171,0.2785181,0.2965777,0.412447,0.1020789,0.3469076,-0.2995602,0.572081,0.713541,0.4276482,0.539799,0.4143866,0.3615465,0.2354834,0.5841507,0.7030966,0.7783995
10.82853,0.06743249,0.4262674,-0.1096979,0.06672112,-0.0456478,-0.5244769,-0.418291,0.4759969,0.32215,-0.8195421,-0.1367375,-0.06452114,-0.07031286,-0.405818,-0.1842882,-0.4349554,0.1171857,-0.1245145,0.5631405,-0.5294077,0.5111319,0.1355055,0.4433806,0.2434544,0.2784773,0.2909219,0.4119559,0.09889559,0.3300262,-0.2956657,0.5706975,0.7133505,0.4281743,0.5356064,0.4210942,0.3296205,0.2293664,0.5621744,0.7031484,0.7747592
10.95653,0.0927458,0.4003543,-0.05110398,0.08404167,0.02317921,-0.4434818,-0.3146531,0.4862112,0.3815366,-0.7977698,-0.05717263,0.01020266,0.01023415,-0.1349403,0.0304561,-0.2421339,0.2164192,-0.03881314,0.719197,-0.3651891,0.4801833,0.1365771,0.4412244,0.2459914,0.2790513,0.2934195,0.4207455,0.1035325,0.3289939,-0.2923828,0.5759463,0.722147,0.4323348,0.552771,0.432106,0.3704966,0.2349527,0.5762964,0.7160581,0.7832948
11.08453,0.189214,0.4425741,0.05286159,0.1839465,0.1397123,-0.2562209,-0.1009773,0.5484263,0.4829978,-0.7681691,0.0346958,0.1193843,0.1165319,0.0395511,0.1798014,-0.05570167,0.2749654,0.01835393,0.7731301,-0.3229817,0.5013599,0.1335209,0.4428212,0.2498598,0.2903942,0.3090018,0.4370614,0.100998,0.3394664,-0.2893933,0.5802419,0.7201797,0.4349942,0.560522,0.4385171,0.3523305,0.2332695,0.5664011,0.7205146,0.781601
11.21253,0.1561775,0.471622,0.05562884,0.19542,0.1705456,-0.2527745,-0.08747742,0.570129,0.4870065,-0.7616303,0.02340614,0.1091259,0.09966467,-0.001836488,0.142879,-0.1285597,0.2488492,-0.00574938,0.731315,-0.3599369,0.5177419,0.131154,0.4451202,0.2483894,0.2857023,0.3068908,0.4343513,0.08732764,0.3363236,-0.2900292,0.5745922,0.7182144,0.4277794,0.5553455,0.4352198,0.3681488,0.2318584,0.5602939,0.7174077,0.7782874
11.34052,0.1783577,0.4586443,0.02864416,0.1638047,0.1497147,-0.2939291,-0.1354816,0.5504423,0.4470462,-0.7728989,-0.01637065,0.07683021,0.05349975,-0.08504846,0.09388173,-0.114586,0.2161375,-0.04767926,0.6681278,-0.4224236,0.4802443,0.1304674,0.4391524,0.2433798,0.2826226,0.3003831,0.4273041,0.08514034,0.3384156,-0.2916883,0.5695248,0.7131007,0.4274066,0.5555415,0.4254827,0.3168842,0.2300661,0.5655551,0.7161317,0.7780461
11.46852,0.1329124,0.4371693,-0.02939164,0.1052559,0.09202508,-0.3897212,-0.2465546,0.5166762,0.3944861,-0.7846114,-0.0754892,0.009483244,-0.01142857,-0.20163,-0.0075391,-0.2550312,0.164918,-0.08207408,0.5942796,-0.4931787,0.4670543,0.1281898,0.4424511,0.2412901,0.2749657,0.2923435,0.4269669,0.08960903,0.3308768,-0.2944353,0.5648499,0.7121809,0.4231676,0.5412482,0.4113353,0.3305487,0.2270707,0.5417718,0.7155929,0.7761487
11.59652,0.06664588,0.4024861,-0.104529,0.02722622,0.003283175,-0.5001065,-0.3615431,0.4815032,0.3209416,-0.7983679,-0.1395277,-0.06502154,-0.08205487,-0.3515092,-0.1438998,-0.3541413,0.1071638,-0.1824692,0.5278822,-0.5630527,0.4834648,0.1278846,0.443793,0.241568,0.2815532,0.2858169,0.4153289,0.08675963,0.3293147,-0.3016591,0.565922,0.7080924,0.4194955,0.5427603,0.4214549,0.3139283,0.2231377,0.5549678,0.7157983,0.7773163
11.72452,0.01103175,0.3574311,-0.1732694,-0.03974123,-0.06868847,-0.6041837,-0.4871845,0.4379713,0.2432742,-0.8261928,-0.1987764,-0.1391112,-0.1424889,-0.4852637,-0.2461068,-0.4809808,0.04430005,-0.2132365,0.4523875,-0.6480055,0.4595908,0.1264903,0.4424947,0.2392425,0.2765975,0.2816525,0.4122918,0.08353925,0.3275594,-0.2952217,0.5638265,0.7094885,0.4194644,0.5345417,0.4027073,0.3334416,0.2221619,0.5546824,0.721111,0.7793477
11.85252,-0.07940095,0.3124085,-0.2469698,-0.1151383,-0.1578396,-0.7103825,-0.6103114,0.4176447,0.1639021,-0.8418459,-0.2594007,-0.2045015,-0.1945857,-0.5649248,-0.2991419,-0.5717192,0.02961884,-0.2554161,0.5001659,-0.5782127,0.4846277,0.1283477,0.4428113,0.236809,0.2769817,0.2725853,0.407611,0.08036914,0.3177172,-0.2953175,0.5615413,0.7058466,0.4174868,0.5312644,0.4042375,0.3407061,0.2216681,0.5651944,0.7287967,0.7780182
11.98052,0.0006406796,0.3190957,-0.1334617,-0.031417,-0.02111092,-0.5204451,-0.3952961,0.4193401,0.267141,-0.8170866,-0.15106,-0.08557481,-0.06935717,-0.2577105,-0.05403352,-0.263611,0.115306,-0.1609247,0.6359005,-0.4490795,0.4612342,0.1270919,0.4384228,0.2419786,0.2849809,0.2811287,0.4232085,0.09764636,0.3269148,-0.2937889,0.5694845,0.7109047,0.4238265,0.5514632,0.4269896,0.3015469,0.2275203,0.570581,0.7391311,0.7852483
12.10852,0.05652845,0.3618608,-0.03906782,0.05320801,0.09726732,-0.3613785,-0.2276607,0.4872865,0.3381368,-0.7961274,-0.07700001,-0.01478568,0.00850745,-0.150158,0.05042089,-0.1815694,0.1544491,-0.1537179,0.6474765,-0.4374256,0.4858827,0.1255157,0.4368173,0.2489598,0.2942324,0.2924232,0.4365531,0.08019815,0.3288425,-0.2894267,0.5685008,0.7089494,0.4275871,0.5541156,0.4256148,0.3356829,0.2258784,0.5748655,0.7403294,0.7848408
12.23652,0.04739776,0.3811528,-0.06595673,0.0385449,0.09436513,-0.3957495,-0.2687816,0.4974888,0.3133418,-0.7975898,-0.1020129,-0.05079675,-0.02977009,-0.2194745,0.001070145,-0.2336112,0.1397442,-0.1403421,0.6134026,-0.4638283,0.4836311,0.1224947,0.4379417,0.2463706,0.2836615,0.28962,0.4322022,0.07577525,0.3322264,-0.294229,0.5656003,0.7075505,0.4230253,0.5499066,0.4184389,0.3310869,0.2281882,0.5588799,0.7361384,0.7820006
12.36452,0.03149749,0.3707671,-0.1008793,-0.0002281942,0.05515097,-0.4539244,-0.3330547,0.4813367,0.2769873,-0.8013073,-0.1407189,-0.09403577,-0.07798477,-0.3248581,-0.09060714,-0.3300054,0.1054791,-0.1831285,0.5463869,-0.5254215,0.4914107,0.1248172,0.4365879,0.2453583,0.2841188,0.2862932,0.4264109,0.08976697,0.328844,-0.2960519,0.5631385,0.7081974,0.4216879,0.5437505,0.4192416,0.3368224,0.227879,0.5478789,0.7353901,0.7801286
12.49252,-0.007326256,0.3520213,-0.1616053,-0.06064632,-0.01617091,-0.5660599,-0.4552843,0.4576005,0.1974033,-0.7963122,-0.2102189,-0.1598024,-0.1413004,-0.475889,-0.1954812,-0.4570371,0.05598215,-0.2807156,0.4721221,-0.601865,0.4556484,0.1263529,0.4400638,0.2441988,0.2797548,0.279575,0.4175527,0.08776265,0.3272626,-0.2889244,0.5594703,0.7019742,0.4235395,0.539526,0.4114219,0.3317468,0.2259872,0.5746396,0.7337375,0.7784215
12.62051,-0.04748325,0.3195249,-0.2342204,-0.1325919,-0.1002702,-0.6853927,-0.590912,0.4266943,0.1262753,-0.8148174,-0.2781107,-0.2413197,-0.2119372,-0.6270717,-0.3110957,-0.6205226,0.0004741413,-0.2887473,0.3998418,-0.6807563,0.484839,0.1243716,0.4402896,0.2417091,0.275131,0.2722603,0.4127782,0.0840792,0.3212223,-0.2823031,0.5589857,0.7014479,0.4218293,0.530806,0.399915,0.3264283,0.2241562,0.548318,0.7359038,0.7803422
12.74851,-0.1444053,0.2775328,-0.3082693,-0.2066505,-0.1888457,-0.7962908,-0.7238336,0.3778574,0.03710145,-0.8271793,-0.3449652,-0.3189525,-0.2741439,-0.7762704,-0.4328557,-0.6670708,-0.05836345,-0.3691339,0.3277218,-0.758461,0.4856977,0.1277716,0.4410445,0.2423799,0.2800665,0.2672521,0.4084848,0.08535447,0.3273135,-0.2907698,0.5592055,0.6997964,0.4207987,0.527661,0.3920662,0.3101513,0.2238271,0.5656683,0.7377787,0.7838668
12.87651,-0.1528567,0.2346997,-0.3856995,-0.2813534,-0.2701436,-0.905235,-0.8440465,0.3350264,-0.02816236,-0.8359063,-0.3916383,-0.3788564,-0.3162164,-0.8201441,-0.4548235,-0.7884747,-0.04993171,-0.3324864,0.4003065,-0.6541189,0.4630116,0.1277671,0.4414562,0.2439187,0.2725843,0.2640108,0.4016881,0.08965658,0.3136443,-0.2874857,0.5595664,0.7029921,0.4249056,0.5290567,0.4006122,0.3412016,0.2232432,0.5643035,0.7480469,0.7835546
13.00451,-0.1093782,0.2457752,-0.2419718,-0.1759693,-0.1143662,-0.6864095,-0.615676,0.3692953,0.06353734,-0.818969,-0.2708459,-0.2625572,-0.1862684,-0.5285379,-0.2228631,-0.5123313,0.02968587,-0.2606487,0.5253841,-0.534488,0.4912018,0.1271109,0.4408913,0.2502257,0.2883347,0.2744733,0.4234339,0.1005023,0.3305829,-0.2879805,0.5675442,0.7063752,0.4281709,0.5416642,0.418256,0.3269294,0.2249619,0.5629663,0.7563574,0.7898975
13.13251,0.01183641,0.3037849,-0.13908,-0.09464511,0.01883421,-0.5336642,-0.460351,0.393809,0.1209971,-0.8501813,-0.2101824,-0.2027801,-0.1209153,-0.4434736,-0.1394684,-0.4007096,0.05257185,-0.196538,0.5239706,-0.5296922,0.4660564,0.1252469,0.4421102,0.2564854,0.2929466,0.2799621,0.4271996,0.06820302,0.327678,-0.3002146,0.568969,0.7027301,0.4318629,0.542372,0.4167416,0.3165142,0.2249056,0.5389792,0.7536055,0.7890235
13.26051,0.01966987,0.3284988,-0.15711,-0.1084362,0.01782832,-0.5761697,-0.5073596,0.413742,0.09474657,-0.8519886,-0.2414959,-0.2339184,-0.1561431,-0.5096178,-0.1756164,-0.4421728,0.04638384,-0.2217714,0.4794379,-0.5598503,0.4703781,0.1298783,0.443467,0.2555654,0.2881146,0.279383,0.4239568,0.06405806,0.3267675,-0.3035592,0.5640011,0.7016788,0.4349762,0.5412179,0.4206161,0.3124193,0.226582,0.5654601,0.7522137,0.7870668
13.38851,0.03466552,0.3341064,-0.1762017,-0.1342646,-0.01515092,-0.6312919,-0.5724137,0.3933394,0.08681586,-0.8811275,-0.2894294,-0.2770303,-0.2043651,-0.6038534,-0.2632059,-0.5778387,0.02438216,-0.226598,0.4213323,-0.6144938,0.4644446,0.1276782,0.4455591,0.2573258,0.2872378,0.2758919,0.4225428,0.06490269,0.3080851,-0.3062185,0.5619631,0.6989115,0.4331855,0.530922,0.4199854,0.3163352,0.22748,0.5481244,0.7498168,0.7879904
13.51651,-0.01677644,0.3207109,-0.2413257,-0.186009,-0.09535801,-0.7296926,-0.6717682,0.3783385,0.02405224,-0.8819106,-0.3453703,-0.3412758,-0.2646789,-0.7475041,-0.3579726,-0.701599,-0.01540838,-0.3144641,0.3554575,-0.6820406,0.4691524,0.1315749,0.4455427,0.2584378,0.2880635,0.2734786,0.4157375,0.08349164,0.3193578,-0.2987007,0.5599917,0.7006341,0.4352735,0.5264498,0.4047079,0.3379602,0.2318003,0.5777451,0.7523984,0.7875803
13.64451,-0.1021079,0.2893023,-0.3104519,-0.2517323,-0.1709072,-0.8380277,-0.8112662,0.348707,-0.05144457,-0.8951418,-0.4054529,-0.4010459,-0.3195646,-0.8871591,-0.470992,-0.7915205,-0.06683038,-0.3921264,0.2867288,-0.7521275,0.5034878,0.1331164,0.4472895,0.2615518,0.2834929,0.2689845,0.4162398,0.07933533,0.3212346,-0.3014775,0.5587408,0.6967183,0.4363678,0.5242275,0.4096862,0.327121,0.2302858,0.5850378,0.7548566,0.7902566
13.77251,-0.1362459,0.2604491,-0.3746536,-0.3175447,-0.2429706,-0.9400741,-0.9202011,0.312803,-0.1021166,-0.9052032,-0.4640676,-0.4723797,-0.3827548,-1.027094,-0.5978583,-0.9056944,-0.1159442,-0.3642478,0.2254875,-0.8253845,0.4725135,0.1370501,0.4519932,0.2623974,0.2807692,0.2645818,0.4061223,0.08508231,0.3064229,-0.3036064,0.56178,0.699027,0.4359078,0.5233762,0.408632,0.3041957,0.2285883,0.5401816,0.7583833,0.7913679
13.90051,-0.1517986,0.2209933,-0.4119502,-0.3536646,-0.2887429,-0.9865279,-0.9747589,0.2986954,-0.1460463,-0.8856155,-0.4533658,-0.4717195,-0.3578278,-0.9127102,-0.4719393,-0.7997686,-0.04846345,-0.3355685,0.3509863,-0.665002,0.469147,0.1358404,0.4479255,0.2652241,0.2834106,0.2644484,0.4075064,0.07998558,0.3217216,-0.3005147,0.5645929,0.7047304,0.4413283,0.5274671,0.4137108,0.3129183,0.2322008,0.5700192,0.7690773,0.7986577
14.02851,-0.06294172,0.262371,-0.2476438,-0.2311428,-0.1183025,-0.7432467,-0.7216296,0.3493383,-0.03909499,-0.8644552,-0.3501874,-0.3701677,-0.2544027,-0.699246,-0.3004366,-0.6024911,0.04052109,-0.2287482,0.4504107,-0.5608683,0.4779585,0.1372431,0.4498347,0.2760559,0.2937769,0.2751631,0.4234506,0.09587599,0.3291307,-0.2946759,0.5740084,0.7087218,0.4470427,0.5416177,0.4197514,0.3384071,0.2372057,0.5641689,0.7762592,0.7985471
14.1565,-0.01995389,0.3151592,-0.1906657,-0.1722882,-0.04975379,-0.6692869,-0.6530511,0.3871138,-0.009032666,-0.851468,-0.3257237,-0.3418765,-0.233296,-0.6985897,-0.2918168,-0.5916632,0.05056436,-0.2439708,0.421594,-0.5899079,0.4858044,0.1375699,0.4505316,0.2756127,0.3028594,0.2860845,0.4329737,0.08558927,0.3308713,-0.2918339,0.5740965,0.7047617,0.4486561,0.5371074,0.4232956,0.3197914,0.2401354,0.5677884,0.7724209,0.7991234
14.2845,-0.02310272,0.3241237,-0.2209588,-0.1977265,-0.07865,-0.713977,-0.6977684,0.4007456,-0.01393606,-0.848931,-0.3463151,-0.3665734,-0.2596843,-0.7507138,-0.3363715,-0.6349362,0.05000421,-0.2372963,0.3828631,-0.6261642,0.4862845,0.1417104,0.4501477,0.277795,0.3024988,0.2836298,0.4260263,0.08545581,0.3253349,-0.290954,0.5757783,0.7072934,0.4511718,0.53079,0.4193779,0.2972257,0.2415418,0.5741696,0.7732338,0.799273
14.4125,-0.0375503,0.3225249,-0.2625317,-0.2388099,-0.1246957,-0.7892238,-0.7855158,0.3874756,-0.05291767,-0.8524855,-0.388376,-0.4081154,-0.3038585,-0.8618636,-0.415535,-0.7466736,0.02377388,-0.2503797,0.319793,-0.6877132,0.4719771,0.1434688,0.4536248,0.2816151,0.2982598,0.282685,0.4263086,0.08665815,0.3234891,-0.2853312,0.5741246,0.7076545,0.4523968,0.5309322,0.4080684,0.3339022,0.2397003,0.5527761,0.7742428,0.7980572
14.5405,-0.09476816,0.3088072,-0.3256109,-0.2951605,-0.1928396,-0.8877931,-0.8940829,0.3641783,-0.1051811,-0.8629565,-0.4469726,-0.4743723,-0.3626409,-0.9995214,-0.532773,-0.8382587,-0.02064447,-0.3148459,0.2553509,-0.7572242,0.4818708,0.1423381,0.4574736,0.2822835,0.2912988,0.2792215,0.4180425,0.08095726,0.3262904,-0.2823784,0.5748283,0.709283,0.4557045,0.5277399,0.4124876,0.3169456,0.2406337,0.5837859,0.7768195,0.8007264
14.6685,-0.10306,0.2782014,-0.3912133,-0.3564191,-0.2652684,-0.9790765,-1.001479,0.3165482,-0.1760914,-0.8731462,-0.5020127,-0.532174,-0.4176043,-1.123402,-0.6366704,-0.9081451,-0.07204667,-0.3496191,0.1922135,-0.832285,0.4844892,0.1449106,0.4543796,0.2834146,0.282837,0.2741185,0.4157197,0.1075167,0.3367997,-0.2928981,0.5769167,0.7095214,0.4565185,0.5239767,0.4086415,0.2975166,0.2407644,0.5532923,0.7817929,0.8037027
14.7965,-0.1591837,0.2388072,-0.4645305,-0.4192048,-0.3554676,-1.074084,-1.107291,0.2718475,-0.2319303,-0.8937377,-0.5644386,-0.5864188,-0.4714157,-1.250546,-0.7562055,-1.080045,-0.1303861,-0.4267252,0.1322691,-0.8953925,0.479415,0.1489004,0.4550294,0.2843888,0.2937319,0.276579,0.4170371,0.116797,0.3391236,-0.2875595,0.5820338,0.7121726,0.4563703,0.5257192,0.4133569,0.3468093,0.2460495,0.5761986,0.7849133,0.8059102
14.9245,-0.219708,0.202593,-0.4624589,-0.4347803,-0.3593699,-1.068855,-1.106569,0.2903845,-0.232723,-0.8765896,-0.5219461,-0.5561333,-0.4280173,-1.084264,-0.5872898,-0.8766897,-0.0380937,-0.3295768,0.2837691,-0.7102223,0.4886928,0.1510716,0.4533158,0.2929146,0.2999097,0.2754641,0.4179247,0.1037646,0.3352594,-0.2826918,0.5841833,0.7173831,0.4625955,0.5348403,0.4174161,0.3015386,0.2447068,0.5787112,0.7959163,0.8109512
15.0525,-0.1104342,0.2489635,-0.3236712,-0.30591,-0.191252,-0.8360575,-0.8663051,0.3283028,-0.125706,-0.8417337,-0.4223473,-0.4560972,-0.3180779,-0.8627566,-0.3959905,-0.7110702,0.05102355,-0.2506219,0.3674228,-0.6212009,0.5051908,0.1512829,0.4562846,0.3005693,0.3063242,0.2912946,0.4357897,0.1148799,0.3359651,-0.2846601,0.5916284,0.7209313,0.466955,0.5425814,0.4237582,0.3371776,0.2473799,0.5730114,0.7993475,0.8109992
15.1805,-0.04868886,0.3076286,-0.2779372,-0.2570942,-0.137503,-0.772703,-0.7959442,0.3770469,-0.09198346,-0.8365892,-0.40609,-0.4399983,-0.309614,-0.8749254,-0.4072253,-0.6921991,0.05614519,-0.2502387,0.3336557,-0.6595778,0.4856333,0.1476494,0.4560921,0.3028554,0.3151124,0.2998631,0.4406161,0.1012457,0.3419774,-0.2743645,0.5922033,0.7207494,0.4679721,0.5441548,0.4321012,0.311189,0.2510379,0.5705177,0.7987995,0.8113873
15.3085,-0.06557589,0.3147135,-0.3085574,-0.284572,-0.1501001,-0.8090426,-0.8296067,0.376478,-0.09670341,-0.8353506,-0.4254253,-0.4575898,-0.3381508,-0.9268929,-0.4498639,-0.7437693,0.0465191,-0.264132,0.291807,-0.7010316,0.4873001,0.1516609,0.4580281,0.3064155,0.3030612,0.2991443,0.4342036,0.1101117,0.3363599,-0.2769857,0.5929403,0.7217861,0.4678129,0.5420672,0.4275942,0.3129849,0.2555399,0.5836031,0.7987206,0.8099944
15.43649,-0.08872618,0.3121062,-0.3490082,-0.3254285,-0.2039382,-0.8873926,-0.9138844,0.3497491,-0.1229445,-0.8303649,-0.4768516,-0.4987455,-0.3860504,-1.035497,-0.5298938,-0.8687692,0.01687152,-0.3408303,0.2274897,-0.7723221,0.4950553,0.1549086,0.4564728,0.3077656,0.3030944,0.297285,0.4302342,0.1184172,0.3239888,-0.276519,0.594367,0.7219207,0.4741753,0.5438876,0.4259569,0.3367555,0.2537857,0.6121865,0.8001338,0.8114142
15.56449,-0.1055062,0.2891737,-0.4159395,-0.3845415,-0.2721954,-0.9872372,-1.021204,0.3186154,-0.1998019,-0.8431869,-0.5368297,-0.5506907,-0.4414279,-1.157221,-0.6359009,-0.983003,-0.03495235,-0.3552706,0.1640866,-0.844573,0.4937776,0.1593571,0.4593497,0.3092937,0.305106,0.2977403,0.4312366,0.1309859,0.3490112,-0.2770603,0.5963632,0.7204396,0.4723995,0.5392036,0.4195667,0.3328052,0.25454,0.56824,0.8034787,0.8130504
15.69249,-0.2081345,0.2605585,-0.4868767,-0.4472082,-0.3437625,-1.077235,-1.122567,0.2969072,-0.2313968,-0.862502,-0.5882891,-0.6062884,-0.4943834,-1.275188,-0.7412001,-1.03997,-0.08476309,-0.4169415,0.1000607,-0.9177862,0.5133352,0.1617724,0.4638734,0.3118225,0.3005642,0.295076,0.4276455,0.1147991,0.3295279,-0.2737319,0.5975919,0.7234675,0.4734628,0.5428767,0.4267912,0.334046,0.2512643,0.6003812,0.8092611,0.8151794
15.82049,-0.2781028,0.2253335,-0.5528131,-0.5130611,-0.4224895,-1.164152,-1.218252,0.2616772,-0.2936485,-0.8846083,-0.6451796,-0.6602017,-0.5523297,-1.386525,-0.8339767,-1.113966,-0.132146,-0.444952,0.09234625,-0.9139026,0.5234971,0.1641877,0.4657887,0.3126647,0.3112488,0.2926419,0.4273717,0.1159733,0.3446318,-0.2726015,0.5992556,0.7257748,0.4735457,0.5432025,0.421134,0.3083107,0.2520501,0.5890205,0.8154877,0.8144026
15.94849,-0.2333552,0.2074709,-0.4706769,-0.46055,-0.3467301,-1.055575,-1.105909,0.2672603,-0.2246497,-0.8594187,-0.5539166,-0.5770978,-0.4607578,-1.11603,-0.6007925,-0.9562684,-0.02606392,-0.3434322,0.2358572,-0.7484429,0.500839,0.1648237,0.4622317,0.3186914,0.3179377,0.2986612,0.4395612,0.1313364,0.3302127,-0.2726267,0.6058134,0.7258821,0.4804796,0.5534967,0.4301198,0.3445073,0.2568697,0.5950903,0.8249357,0.8202453
16.07649,-0.130859,0.2597895,-0.3726776,-0.3614309,-0.2006962,-0.8615305,-0.903589,0.3307783,-0.1467569,-0.8297611,-0.4727551,-0.4921749,-0.3718515,-0.9382114,-0.4502009,-0.7581254,0.03559665,-0.2843831,0.2768482,-0.7108272,0.4927206,0.165499,0.4662945,0.3286858,0.3178813,0.3131264,0.4493728,0.1231394,0.3501927,-0.2680779,0.6120355,0.7330707,0.486432,0.5593051,0.4397591,0.3286024,0.2592651,0.5805817,0.8250059,0.8207896
16.20449,-0.1041971,0.302385,-0.3651146,-0.3518903,-0.1902457,-0.8561071,-0.8849223,0.3242466,-0.1416623,-0.8189532,-0.4780972,-0.4898232,-0.3928159,-0.9660305,-0.46986,-0.7981704,0.03294856,-0.2951891,0.2466592,-0.7423933,0.4911003,0.1668795,0.4683466,0.3341337,0.3262156,0.3159432,0.4406429,0.1307657,0.3520055,-0.2692502,0.6113257,0.7301509,0.4881037,0.5563343,0.4400772,0.3444898,0.261103,0.5761692,0.8247753,0.8188177
16.33249,-0.1081346,0.3103587,-0.3872661,-0.3713689,-0.2013437,-0.8890372,-0.9304743,0.3356501,-0.1390873,-0.83034,-0.503025,-0.5082015,-0.4215199,-1.03378,-0.5242732,-0.8464716,0.01092887,-0.3714084,0.1972363,-0.7914197,0.5038223,0.1684402,0.4700922,0.3329844,0.3236933,0.3147539,0.4501863,0.1194185,0.3453341,-0.2624321,0.6117366,0.7285914,0.4874617,0.5603387,0.4356551,0.3518473,0.2601858,0.6117936,0.8245974,0.8180939
16.46049,-0.1635379,0.2987286,-0.4391183,-0.4172742,-0.2556321,-0.9653029,-1.004691,0.3166414,-0.1801032,-0.8299783,-0.5533836,-0.5536679,-0.4713978,-1.130454,-0.6097917,-0.8935084,-0.03130194,-0.367627,0.1351167,-0.8627475,0.5105113,0.1718442,0.4724147,0.3339321,0.3222599,0.312302,0.4455746,0.1303666,0.3504973,-0.2700351,0.6095566,0.7305346,0.4909484,0.5555829,0.4387795,0.3290544,0.2608469,0.6020308,0.823356,0.8174386
16.58849,-0.1741093,0.2706879,-0.501424,-0.4780569,-0.323636,-1.060501,-1.100075,0.2884411,-0.2371554,-0.8393378,-0.6137273,-0.59954,-0.525544,-1.249139,-0.7006051,-1.001182,-0.08219787,-0.3972128,0.0704599,-0.9369885,0.4948509,0.1766979,0.4747355,0.3354217,0.3214951,0.313668,0.4442611,0.1381177,0.360664,-0.2684894,0.6101842,0.727798,0.4909043,0.5569944,0.4291147,0.3266684,0.2615516,0.562679,0.8272548,0.8190717
16.71649,-0.2394778,0.2370484,-0.565955,-0.5406752,-0.3877259,-1.137264,-1.182878,0.2546352,-0.2793116,-0.849945,-0.6729555,-0.6650473,-0.5832297,-1.35795,-0.8150052,-1.119436,-0.1413699,-0.4772065,0.006981432,-1.008591,0.4935964,0.1778657,0.4773622,0.3409243,0.3183502,0.3102885,0.439313,0.1345934,0.3524903,-0.2673783,0.6138144,0.7373855,0.4943154,0.5557976,0.449903,0.346617,0.2617378,0.5776882,0.8296435,0.822015
16.84448,-0.2614994,0.1944743,-0.6045685,-0.5802876,-0.4278273,-1.17834,-1.230487,0.2470074,-0.3117461,-0.852255,-0.6524302,-0.648414,-0.5677454,-1.24324,-0.6875107,-1.049765,-0.07999121,-0.3826151,0.1372866,-0.845067,0.5063552,0.1805487,0.4757243,0.342327,0.3204836,0.310143,0.441298,0.1293686,0.3582211,-0.2636537,0.6151743,0.7354591,0.4962835,0.5611286,0.4373876,0.3526646,0.260348,0.5849192,0.8404973,0.8227099
16.97248,-0.2244866,0.2328138,-0.4553115,-0.4450638,-0.2666439,-0.9389475,-0.979889,0.2821395,-0.1914711,-0.8144866,-0.5500752,-0.5402523,-0.4527161,-1.007872,-0.4950725,-0.8707761,-0.006939587,-0.3274811,0.2252504,-0.7528569,0.5170099,0.1834465,0.4774945,0.3491096,0.339728,0.3250538,0.4607378,0.1469947,0.3604154,-0.2594329,0.6193962,0.7406152,0.5029008,0.5692353,0.4577758,0.3754134,0.2628055,0.5771323,0.8424244,0.8214325
17.10048,-0.1715458,0.2839834,-0.3995592,-0.3885429,-0.192414,-0.8509444,-0.8740592,0.3247055,-0.1435558,-0.8069755,-0.5265557,-0.5104839,-0.4445264,-0.9780496,-0.4739426,-0.8489769,-0.002011825,-0.3031638,0.196756,-0.7805458,0.5118095,0.1802015,0.4814501,0.3547488,0.3403803,0.3329788,0.4604714,0.1378348,0.3647823,-0.2571478,0.6201401,0.7375547,0.5044047,0.5657583,0.4552645,0.3822925,0.2632756,0.5542775,0.8400623,0.8203372
17.22848,-0.1539202,0.2885062,-0.431069,-0.4133123,-0.2000742,-0.8856483,-0.9013441,0.3011221,-0.1488898,-0.8053161,-0.5447559,-0.5262963,-0.4693611,-1.013937,-0.5036614,-0.8373359,-0.02047449,-0.4040731,0.166423,-0.8186268,0.5100734,0.1816889,0.4793944,0.356158,0.3323711,0.3312826,0.4590034,0.1511687,0.3622652,-0.259381,0.6202538,0.7411448,0.5066704,0.5643182,0.4554526,0.3525099,0.267127,0.603986,0.835492,0.8174391
17.35648,-0.1692982,0.2851091,-0.4786747,-0.4497784,-0.2487109,-0.9452223,-0.9597946,0.299333,-0.1621471,-0.812579,-0.5871731,-0.5595852,-0.5143769,-1.09658,-0.579429,-0.9358224,-0.05775392,-0.3888269,0.1057795,-0.8824026,0.4901569,0.1811229,0.4844886,0.3559138,0.3379227,0.3268663,0.4525735,0.1482698,0.3635673,-0.2555118,0.6160243,0.739484,0.5075007,0.5579721,0.4543265,0.3617078,0.262348,0.5846229,0.8345476,0.8159548
17.48448,-0.2337137,0.2543451,-0.5382812,-0.5088649,-0.3122805,-1.033921,-1.05133,0.2790833,-0.2052247,-0.8238201,-0.6445454,-0.6074991,-0.5686609,-1.206993,-0.6791598,-1.033507,-0.1162757,-0.4854573,0.04315539,-0.9557821,0.4962475,0.1879046,0.4869463,0.3601861,0.3298153,0.3237093,0.4470154,0.1412846,0.3582594,-0.2582854,0.6148306,0.7356606,0.5069996,0.5530111,0.4503994,0.3634329,0.2661398,0.6028726,0.8336723,0.8173159
17.61248,-0.3475334,0.2255963,-0.6085306,-0.5700256,-0.3836136,-1.119911,-1.145431,0.2502234,-0.2742428,-0.8440132,-0.6965606,-0.667036,-0.6249259,-1.320997,-0.7911164,-1.079561,-0.1673854,-0.5146625,-0.01536003,-1.020379,0.539649,0.1843051,0.4903881,0.3624637,0.338004,0.3200283,0.4485885,0.1489642,0.368369,-0.2589433,0.6180369,0.741037,0.5056128,0.5577335,0.4596168,0.3467453,0.2615144,0.5884632,0.8352291,0.8166621
17.74048,-0.3284179,0.1826362,-0.6812822,-0.6269825,-0.451059,-1.205711,-1.241714,0.2048497,-0.3203275,-0.8549373,-0.7392801,-0.7092559,-0.6672272,-1.371232,-0.8079786,-1.14669,-0.1745305,-0.5357666,0.04313707,-0.934554,0.4984946,0.186878,0.4897569,0.3618716,0.3300354,0.3199798,0.4466437,0.1647549,0.3591981,-0.2610904,0.6160925,0.7403895,0.5064351,0.5611046,0.4462166,0.3641634,0.2622499,0.588975,0.8423254,0.8150817
17.86848,-0.2750753,0.1852281,-0.5563096,-0.527878,-0.3091308,-1.000732,-1.02379,0.2286208,-0.22403,-0.8284354,-0.6144714,-0.5918778,-0.5409632,-1.053349,-0.5480295,-0.9125113,-0.08333877,-0.439857,0.1753802,-0.788065,0.4883243,0.1908159,0.4878867,0.3700631,0.3427911,0.3269273,0.4618958,0.1561631,0.3678497,-0.2617629,0.6236645,0.74502,0.5132175,0.5681897,0.4637545,0.3787578,0.2614841,0.5933537,0.84772,0.8173506
17.99648,-0.1825806,0.2417132,-0.4656563,-0.4302562,-0.1913646,-0.8352604,-0.8449066,0.2778668,-0.1232164,-0.8086274,-0.5395043,-0.513148,-0.4661333,-0.9220789,-0.4409737,-0.8099556,-0.05205778,-0.3775863,0.1910944,-0.7724915,0.5068342,0.1894558,0.4889442,0.3771559,0.3548543,0.3405417,0.4709511,0.1533898,0.3655508,-0.2531005,0.6235116,0.7467986,0.5180844,0.5709793,0.4719982,0.395345,0.2629125,0.5660248,0.8450576,0.8177038
18.12448,-0.2520981,0.2572277,-0.4879994,-0.4354575,-0.1925854,-0.8475588,-0.8497134,0.2907775,-0.1385411,-0.810856,-0.5517253,-0.5262179,-0.495488,-0.9547557,-0.4643797,-0.8009591,-0.06180967,-0.4090526,0.1666897,-0.7978221,0.5254492,0.1900613,0.4887778,0.3777164,0.3488263,0.3366138,0.4656532,0.1532715,0.3800548,-0.2547621,0.6198726,0.7456044,0.5134754,0.5654797,0.4617979,0.3766214,0.2638539,0.5824887,0.8410816,0.8145768
18.25248,-0.2129625,0.2550143,-0.5277042,-0.4578511,-0.2288828,-0.8912176,-0.8841691,0.2894118,-0.1432128,-0.8156962,-0.5834756,-0.552098,-0.5340828,-1.025028,-0.5272961,-0.8531981,-0.09689717,-0.4362632,0.1106407,-0.8493894,0.5027503,0.1868932,0.4892745,0.3774481,0.3498479,0.3351684,0.456847,0.1576335,0.3747699,-0.2575136,0.6176494,0.7421712,0.5132664,0.5606364,0.4501908,0.3698695,0.2639511,0.5672032,0.8354062,0.8125672
18.38047,-0.2732311,0.2357464,-0.5865152,-0.5110286,-0.2774213,-0.9768426,-0.9752397,0.2571213,-0.1859507,-0.828156,-0.6301312,-0.6020343,-0.5851954,-1.132057,-0.6256689,-0.9378774,-0.1464941,-0.4836131,0.05006995,-0.9208357,0.5050575,0.186638,0.4930513,0.3792983,0.3383982,0.3295076,0.4553677,0.1606294,0.3679773,-0.2608216,0.6145989,0.7433352,0.510349,0.5573995,0.4523541,0.3560225,0.2653188,0.5599291,0.8365411,0.8132772
18.50847,-0.3408807,0.1940921,-0.6526754,-0.5697369,-0.3494483,-1.073498,-1.072665,0.2353894,-0.2680809,-0.8501509,-0.684956,-0.6529031,-0.6418722,-1.250253,-0.7377269,-1.092543,-0.196977,-0.5426305,-0.007118108,-0.9847288,0.5171932,0.194043,0.4918653,0.3779,0.3390087,0.3276227,0.4486623,0.1503418,0.3856468,-0.258085,0.613831,0.7409105,0.5093921,0.5581116,0.4563513,0.39066,0.2613044,0.5714093,0.834331,0.8115463
18.63647,-0.3900989,0.1515767,-0.722168,-0.6276816,-0.4150188,-1.156739,-1.161303,0.1820838,-0.3148578,-0.8729833,-0.735309,-0.70592,-0.6965387,-1.360323,-0.8291217,-1.099335,-0.258025,-0.6060582,-0.06886631,-1.054671,0.5235665,0.1965271,0.4914168,0.3786464,0.3356208,0.3235705,0.4496143,0.1660798,0.3805368,-0.2595966,0.6111256,0.742501,0.5092721,0.5561002,0.4482537,0.3325788,0.2603055,0.5720165,0.8373646,0.8122416
18.76447,-0.4107939,0.1142486,-0.7406787,-0.6504444,-0.4353621,-1.172908,-1.174165,0.1742531,-0.3039775,-0.8694392,-0.7027163,-0.679799,-0.6599775,-1.191242,-0.6944351,-1.053061,-0.1913818,-0.5180834,0.08593827,-0.8518459,0.5002928,0.1938701,0.4881463,0.380927,0.347343,0.3230109,0.4475684,0.169871,0.374734,-0.256961,0.6139338,0.7478908,0.513425,0.5586874,0.4581582,0.3794289,0.2634149,0.5753667,0.8448429,0.8130493
18.89247,-0.3694373,0.1514575,-0.5932536,-0.5094718,-0.2592321,-0.9166009,-0.9034048,0.2241306,-0.1864475,-0.8368488,-0.5864769,-0.5599737,-0.5343114,-0.9468648,-0.4799308,-0.8245403,-0.1172552,-0.4602301,0.188014,-0.7383841,0.5410109,0.1954145,0.491777,0.3856913,0.3493447,0.3381346,0.4642357,0.1644959,0.3748941,-0.25556,0.6173933,0.7511896,0.5181141,0.5677806,0.4668731,0.3914637,0.2655568,0.5766869,0.845026,0.813463
19.02047,-0.2793482,0.1948613,-0.5359114,-0.4478931,-0.1907912,-0.8219519,-0.7957762,0.2510934,-0.1479076,-0.8273501,-0.5588573,-0.5210316,-0.5089177,-0.9247082,-0.4667839,-0.748557,-0.1148682,-0.445352,0.1662546,-0.7622204,0.5176952,0.1935256,0.4964562,0.3882034,0.3632509,0.3414051,0.46645,0.1629244,0.387142,-0.2540695,0.6150535,0.7476328,0.5149788,0.5632631,0.462985,0.3210577,0.2609786,0.5720446,0.836727,0.8114986
19.14847,-0.3180757,0.1958442,-0.5653539,-0.4693926,-0.1975689,-0.8588613,-0.8220323,0.2553239,-0.155206,-0.8289168,-0.5724413,-0.542392,-0.5347649,-0.9674233,-0.5091022,-0.7780443,-0.1305252,-0.4918023,0.1299726,-0.7934294,0.5223441,0.192048,0.4956754,0.388123,0.3478989,0.3352709,0.4576926,0.1590949,0.3804745,-0.2623937,0.6107577,0.7488339,0.511507,0.5625182,0.4595893,0.3424715,0.2641347,0.5844179,0.8317952,0.8072785
19.27647,-0.3115393,0.1769102,-0.612059,-0.5076548,-0.2405989,-0.9328404,-0.897471,0.237919,-0.162667,-0.832164,-0.6181015,-0.577069,-0.5782393,-1.05824,-0.5857931,-0.9228171,-0.1720758,-0.5205744,0.0700842,-0.8605018,0.5058861,0.1938338,0.5000715,0.3862844,0.3414291,0.3326135,0.4531023,0.1580845,0.3696634,-0.26315,0.6062904,0.7465963,0.5113629,0.5533895,0.4557314,0.3788681,0.2637755,0.5818697,0.8270506,0.8066801
19.40447,-0.3677838,0.1538172,-0.6733815,-0.5632529,-0.3222422,-1.03259,-0.9962118,0.2105554,-0.2399181,-0.8514039,-0.6720526,-0.6304541,-0.6339142,-1.186426,-0.685966,-1.066638,-0.2164919,-0.5904948,0.008047436,-0.9304244,0.5205824,0.1939189,0.5009744,0.3834769,0.3454708,0.3272049,0.444167,0.1678186,0.3774768,-0.2607764,0.6036696,0.7445766,0.5090897,0.5502192,0.4457192,0.394374,0.2611404,0.5963753,0.8271583,0.8077599
19.53247,-0.4234086,0.1110126,-0.7421839,-0.6293517,-0.397911,-1.127695,-1.103086,0.1867376,-0.2821741,-0.8694915,-0.7196435,-0.6892778,-0.6901569,-1.30558,-0.7963689,-1.069375,-0.2735932,-0.6273407,-0.05207003,-0.9991372,0.5207232,0.1971582,0.5014563,0.3856864,0.3460216,0.3211625,0.4454542,0.1636798,0.3757593,-0.2592337,0.601185,0.7461197,0.5079352,0.5501575,0.4451951,0.3386659,0.2642761,0.5825881,0.830855,0.807571
19.66047,-0.4876827,0.07138454,-0.8082865,-0.6886953,-0.4682446,-1.221937,-1.208023,0.1368397,-0.3536741,-0.8939685,-0.7837726,-0.7451321,-0.7467302,-1.421441,-0.9098628,-1.250714,-0.3311156,-0.6794139,-0.1030335,-1.057199,0.523298,0.1948521,0.5033407,0.3854387,0.3389828,0.3214465,0.4460228,0.1649647,0.3836986,-0.257011,0.6055806,0.7478326,0.5094958,0.5440938,0.4478676,0.3827566,0.262061,0.5824315,0.832869,0.8062485
19.78846,-0.4903273,0.03473549,-0.7952602,-0.6836821,-0.4551174,-1.200302,-1.175972,0.1460213,-0.3277666,-0.8778394,-0.7257251,-0.6965241,-0.6800829,-1.209346,-0.7319755,-1.099764,-0.2514162,-0.5748278,0.0689334,-0.8420892,0.5205515,0.1949342,0.5036929,0.385418,0.3492543,0.3194687,0.4471458,0.1583847,0.3655836,-0.2608212,0.6077145,0.751301,0.5103002,0.5491493,0.4526587,0.3839754,0.2655497,0.5924604,0.8370987,0.8092782
19.91646,-0.4050921,0.07545842,-0.6591648,-0.5594855,-0.2840639,-0.9635855,-0.9287363,0.1802457,-0.2420577,-0.8508208,-0.6205773,-0.5847651,-0.5603104,-0.9919358,-0.5469584,-0.791045,-0.1755325,-0.526382,0.1549736,-0.7466177,0.52595,0.1961422,0.5054107,0.3952182,0.351488,0.3334983,0.4647307,0.16518,0.3890038,-0.2587998,0.609637,0.7555334,0.5154762,0.5572546,0.4639347,0.3220612,0.2655613,0.6107864,0.8385996,0.8093393
20.04446,-0.3672865,0.1127164,-0.6150696,-0.5109543,-0.237484,-0.9051834,-0.8594578,0.2059103,-0.2034431,-0.8478737,-0.601211,-0.5716369,-0.5537702,-1.003419,-0.5635413,-0.9009627,-0.1725221,-0.5197116,0.1241059,-0.7725078,0.5233516,0.1958259,0.5089831,0.3927919,0.3616177,0.3339618,0.4613604,0.1615777,0.3784793,-0.2553086,0.6058199,0.7520766,0.5087983,0.5524569,0.4568268,0.3844818,0.2621861,0.577501,0.8331804,0.8061655
20.17246,-0.3511787,0.1082732,-0.6398994,-0.5314862,-0.2639542,-0.9467699,-0.9004648,0.21613,-0.2128589,-0.8549905,-0.6185492,-0.5881774,-0.5748863,-1.053737,-0.6087304,-0.8986087,-0.1902605,-0.5089332,0.0862512,-0.8137537,0.5108466,0.1960439,0.5080576,0.3883942,0.3581481,0.3300082,0.4574755,0.1497298,0.3717249,-0.2566469,0.6042693,0.7505875,0.50547,0.5486224,0.4525452,0.341139,0.2661429,0.5832951,0.8272004,0.806582
20.30046,-0.3830186,0.09184194,-0.6841699,-0.5785396,-0.3110317,-1.028535,-0.9876498,0.1819794,-0.2586438,-0.8613732,-0.6624904,-0.6249243,-0.6162753,-1.163941,-0.7142015,-1.001723,-0.2196863,-0.5696005,0.02560809,-0.879341,0.5164428,0.196488,0.5112357,0.3894317,0.3521217,0.3253347,0.4535915,0.1635705,0.3759445,-0.2595502,0.6007671,0.75159,0.5070094,0.547362,0.4591423,0.3690852,0.2651252,0.5889094,0.8262576,0.8040422
20.42846,-0.3990501,0.06596707,-0.7460852,-0.6348063,-0.3919027,-1.131806,-1.091856,0.1490645,-0.3305488,-0.8720787,-0.715762,-0.6761287,-0.6689675,-1.288825,-0.8160496,-1.147855,-0.2673392,-0.5805103,-0.03383644,-0.9552476,0.5084276,0.1984337,0.5166203,0.3836989,0.356116,0.3224543,0.4464762,0.1651791,0.3918004,-0.2622447,0.6018004,0.7463592,0.506515,0.5432357,0.4507857,0.3618088,0.2655956,0.5884557,0.8242813,0.8062373
20.55646,-0.5164017,0.03737345,-0.8091019,-0.6975251,-0.4520851,-1.230538,-1.206064,0.1298255,-0.3666116,-0.8913747,-0.7643526,-0.7321628,-0.7217028,-1.406014,-0.9242798,-1.209437,-0.3139722,-0.5944976,-0.09180189,-1.02661,0.5537319,0.2021056,0.5208368,0.3842178,0.3482132,0.3180077,0.4451989,0.1572774,0.3761069,-0.2634316,0.6011716,0.7483286,0.5056199,0.5393711,0.4523628,0.349411,0.2635771,0.5575442,0.8245181,0.8074179
20.68446,-0.5229534,0.005233342,-0.8744689,-0.7667253,-0.5329757,-1.323293,-1.29328,0.09807478,-0.4320431,-0.9080824,-0.8218565,-0.7846379,-0.7717516,-1.531089,-1.030915,-1.324311,-0.3648179,-0.7285721,-0.1178754,-1.053542,0.5160604,0.2005359,0.5251513,0.3888935,0.3554547,0.3180607,0.442551,0.1596083,0.3842196,-0.2660996,0.6002234,0.7527596,0.5046493,0.541796,0.4538319,0.3485365,0.26357,0.6165001,0.8279004,0.8051402
20.81246,-0.557839,-0.02574577,-0.8167762,-0.7286956,-0.4851037,-1.249574,-1.224578,0.09250011,-0.3985277,-0.897937,-0.7448624,-0.723205,-0.6880753,-1.281052,-0.8192757,-1.09996,-0.2694179,-0.5843534,0.03374679,-0.8573217,0.544461,0.2016531,0.524299,0.3884013,0.3538996,0.3153716,0.4524879,0.1619325,0.3827181,-0.255944,0.6050282,0.7565463,0.5097039,0.5445231,0.4585385,0.3427582,0.2665427,0.592379,0.836724,0.8108748
20.94046,-0.4376332,0.01917239,-0.6982697,-0.6206958,-0.3446162,-1.053843,-1.014805,0.1234188,-0.3136787,-0.8725382,-0.6578524,-0.6299262,-0.5867493,-1.100857,-0.6763744,-0.9658566,-0.1926562,-0.4643558,0.09449979,-0.7979771,0.5230908,0.2023224,0.5254481,0.3968896,0.3591054,0.3302768,0.4634575,0.1741376,0.3774501,-0.2515032,0.609832,0.7570989,0.5130759,0.548413,0.4692264,0.3659199,0.2687265,0.5769939,0.8353463,0.8111466
21.06845,-0.3809243,0.04977025,-0.686064,-0.601563,-0.3294324,-1.033379,-0.9972019,0.1594616,-0.2848844,-0.8618034,-0.6566076,-0.6298741,-0.5986181,-1.139787,-0.6999212,-1.004572,-0.1941693,-0.4957731,0.06684545,-0.8303601,0.5267946,0.2022242,0.5275576,0.3985101,0.3644186,0.3290053,0.4597275,0.1607683,0.3708158,-0.2570276,0.6081429,0.7563825,0.5120963,0.544332,0.4629843,0.3556731,0.2697542,0.5814884,0.8285955,0.8085806
21.19646,-0.418953,0.05115693,-0.7113746,-0.6207745,-0.3539772,-1.07482,-1.0358,0.1422601,-0.3324168,-0.8691996,-0.6750248,-0.6442078,-0.6156469,-1.209437,-0.7556309,-1.027289,-0.2042073,-0.5312349,0.01996218,-0.8753774,0.5365908,0.1992534,0.5295982,0.3976462,0.360301,0.3276116,0.4529868,0.1768169,0.3897119,-0.2523502,0.6062077,0.7504094,0.5072598,0.5399824,0.4643405,0.3433679,0.2729509,0.5947822,0.8247191,0.8062087
21.32445,-0.4399466,0.03983187,-0.7583528,-0.6675813,-0.4057977,-1.166864,-1.125282,0.1372928,-0.3575909,-0.8773215,-0.7185506,-0.6921203,-0.6585634,-1.322627,-0.8366931,-1.152127,-0.2332031,-0.5523293,-0.043101,-0.9498127,0.5384021,0.2044332,0.5338453,0.3963375,0.3554507,0.3276847,0.4498768,0.1583232,0.3872268,-0.2515992,0.6047645,0.754768,0.5102518,0.538609,0.4549105,0.3643316,0.2705533,0.6060042,0.8267639,0.8088344
21.45245,-0.4692028,0.01537974,-0.8202564,-0.7266207,-0.4892451,-1.261698,-1.236135,0.09747899,-0.4119469,-0.8902828,-0.7703835,-0.7491865,-0.7109872,-1.452297,-0.9541099,-1.283488,-0.2751002,-0.5795029,-0.1026286,-1.028774,0.5228852,0.204863,0.5345662,0.3960707,0.3577881,0.3236002,0.449513,0.1743641,0.3840657,-0.2554708,0.6092684,0.7565783,0.5088547,0.5383981,0.4590766,0.3671706,0.2714493,0.5997822,0.8265218,0.8123609
21.58045,-0.5342518,-0.01618494,-0.8965736,-0.7904546,-0.5606048,-1.353282,-1.32852,0.07012876,-0.4615705,-0.9088776,-0.8172058,-0.8007005,-0.7653546,-1.563092,-1.04216,-1.388893,-0.3279541,-0.6363771,-0.164897,-1.101757,0.5434024,0.2074476,0.5401176,0.3998601,0.3558512,0.3219451,0.4396671,0.1651704,0.3728774,-0.255762,0.6106288,0.7558809,0.5091369,0.5319872,0.448198,0.3717797,0.2772088,0.5939401,0.8308027,0.8139085
21.70845,-0.559613,-0.05537654,-0.9683762,-0.8581769,-0.6420919,-1.443391,-1.434062,0.02935186,-0.5279271,-0.9232551,-0.871625,-0.8443629,-0.8124399,-1.648904,-1.14185,-1.466169,-0.3540029,-0.6164424,-0.1365671,-1.040984,0.5161302,0.2133745,0.5417778,0.4029335,0.3581835,0.3210046,0.4421957,0.1834754,0.3817997,-0.2557741,0.6155081,0.7598596,0.511376,0.528865,0.4605051,0.3749914,0.274966,0.5831066,0.8353424,0.8135781
21.83645,-0.5330174,-0.06069096,-0.8470697,-0.7764276,-0.5412356,-1.290192,-1.279526,0.05128846,-0.4582409,-0.912353,-0.7644743,-0.7540286,-0.6946381,-1.360703,-0.8942363,-1.244957,-0.2362573,-0.538569,0.002177694,-0.8938922,0.5215336,0.2139662,0.537373,0.4118174,0.3665133,0.325488,0.4550205,0.1770438,0.3815807,-0.2485525,0.6236617,0.7651169,0.5163063,0.5388917,0.4639626,0.381059,0.273352,0.6044089,0.8420375,0.822071
21.96445,-0.4757398,-0.007424168,-0.7582684,-0.674089,-0.4154637,-1.117244,-1.095317,0.1120122,-0.3617641,-0.8706438,-0.6785721,-0.6665551,-0.604619,-1.207628,-0.7522856,-1.074046,-0.1730216,-0.4761579,0.03139766,-0.8672047,0.5404214,0.210922,0.5414466,0.4180309,0.371823,0.337709,0.4600034,0.1772755,0.3773157,-0.2547772,0.6242583,0.7611644,0.5168967,0.5426908,0.4694823,0.3526936,0.2771905,0.5988665,0.8418317,0.8216352
22.09245,-0.4471876,0.02334705,-0.7591758,-0.6669328,-0.4033169,-1.12322,-1.106119,0.1232243,-0.3595655,-0.8704152,-0.6856042,-0.6728985,-0.624842,-1.252877,-0.7805648,-1.124476,-0.1658512,-0.4526474,0.007858159,-0.8975027,0.5462531,0.2132918,0.5395081,0.4166834,0.3656426,0.3372023,0.4544787,0.1759265,0.3834384,-0.2512188,0.6231987,0.7614186,0.5166289,0.5383356,0.471206,0.3782598,0.279849,0.6102031,0.8379794,0.8203203
22.22045,-0.4443965,0.03307744,-0.7891439,-0.6942648,-0.430133,-1.170032,-1.153665,0.1203695,-0.4039276,-0.8722083,-0.7121652,-0.6956337,-0.6488538,-1.334826,-0.8388801,-1.195138,-0.179191,-0.4832229,-0.04882693,-0.9564698,0.5371135,0.2151716,0.5442058,0.4216615,0.3644597,0.3384607,0.4561306,0.1787587,0.39675,-0.249695,0.6256289,0.7619772,0.5181049,0.5386208,0.4646039,0.3772375,0.2792115,0.6087223,0.8377039,0.8225655
22.34845,-0.4505248,0.02890097,-0.8378194,-0.7463349,-0.4865273,-1.256096,-1.242044,0.1061984,-0.4305829,-0.885058,-0.7541727,-0.7386132,-0.6958759,-1.447127,-0.9486061,-1.299885,-0.2140611,-0.5326138,-0.1120115,-1.03384,0.5137464,0.2170056,0.547379,0.4218248,0.366614,0.3364092,0.4436285,0.1704092,0.3898016,-0.2484049,0.6234282,0.7634788,0.5206513,0.5335733,0.4771272,0.3769193,0.2810142,0.6015965,0.8397638,0.8236282
22.47644,-0.5254508,0.007733603,-0.9036031,-0.8097333,-0.5622823,-1.354158,-1.343439,0.08183493,-0.4737371,-0.9001917,-0.8096361,-0.7912728,-0.7512483,-1.572773,-1.040279,-1.346193,-0.2622013,-0.5835226,-0.174676,-1.111843,0.5418551,0.2209255,0.5501191,0.4252171,0.3721659,0.3383948,0.447149,0.1759969,0.3867331,-0.2475962,0.6280231,0.7650558,0.5226759,0.5356916,0.470091,0.3604379,0.2825636,0.6107097,0.8430984,0.8260667
22.60444,-0.5348012,-0.01441886,-0.9747704,-0.8772643,-0.6270856,-1.438804,-1.441921,0.0440569,-0.5299615,-0.9190755,-0.8596776,-0.8367336,-0.7989233,-1.67994,-1.141433,-1.464996,-0.3091415,-0.6305384,-0.2342826,-1.192124,0.5236082,0.2216551,0.5554477,0.4304078,0.3708915,0.335643,0.4437103,0.1862319,0.3933099,-0.2477131,0.6311566,0.7654397,0.5224278,0.5343124,0.4694672,0.3609664,0.2798076,0.618579,0.8448743,0.8301199
22.73244,-0.57501,-0.04775243,-1.045919,-0.9411618,-0.6909979,-1.524758,-1.534355,0.01536748,-0.5907522,-0.9274477,-0.9077463,-0.8803873,-0.8529667,-1.763255,-1.211071,-1.57901,-0.3273087,-0.6382457,-0.2026132,-1.127533,0.5314685,0.2262628,0.5575749,0.4306248,0.3680639,0.3347038,0.4424745,0.1826414,0.3979387,-0.249989,0.6327677,0.7671868,0.5274054,0.5337421,0.4675143,0.3880988,0.2758102,0.6177793,0.853197,0.8323236
22.86044,-0.61375,-0.05320416,-0.9167585,-0.8561872,-0.5815344,-1.378476,-1.375728,0.04750018,-0.5021749,-0.910816,-0.7924628,-0.7839392,-0.7304522,-1.463811,-0.9630877,-1.263549,-0.2104473,-0.5324055,-0.06901516,-0.969654,0.560734,0.2327432,0.5560594,0.4397231,0.3724525,0.3446155,0.4560277,0.1827017,0.3968325,-0.2431137,0.6407816,0.7714761,0.5296848,0.5422462,0.4752787,0.3561547,0.2802396,0.6226178,0.863933,0.8350669
22.98844,-0.4875143,0.01013169,-0.8185831,-0.7514391,-0.466468,-1.199479,-1.191243,0.0916585,-0.4195548,-0.8783379,-0.7090145,-0.7013257,-0.6461068,-1.304468,-0.819239,-1.181,-0.1477049,-0.4756977,-0.04026894,-0.9427955,0.5528174,0.2260451,0.5604334,0.4476381,0.3911799,0.3569977,0.4650686,0.1930126,0.3970319,-0.2409028,0.6439388,0.7722949,0.5328906,0.5471075,0.4890529,0.3906129,0.2830569,0.6279583,0.8626885,0.8360288
23.11644,-0.4679288,0.04887332,-0.8220134,-0.749963,-0.4420647,-1.205577,-1.190534,0.1093356,-0.4181223,-0.8715511,-0.7157403,-0.7071046,-0.6631117,-1.347204,-0.8355138,-1.157859,-0.1385787,-0.4422185,-0.06523465,-0.9710312,0.5503659,0.2303194,0.5613911,0.4509109,0.3756254,0.3585267,0.4601762,0.1936871,0.4013642,-0.2454452,0.6443319,0.7707602,0.53359,0.5404565,0.4835516,0.3619954,0.2841936,0.6079005,0.8620453,0.8342174
23.24444,-0.4602002,0.05833476,-0.842443,-0.7680537,-0.468959,-1.242309,-1.238711,0.1024268,-0.4434606,-0.8767478,-0.7383289,-0.7278558,-0.6943216,-1.421621,-0.883755,-1.237633,-0.1554961,-0.4984373,-0.1193276,-1.035288,0.551681,0.2359976,0.561736,0.4499199,0.3809661,0.3560069,0.461089,0.197573,0.4098687,-0.2390281,0.6428073,0.7712978,0.5365915,0.5443559,0.4772512,0.3828363,0.2840252,0.6340744,0.8612477,0.8384696
23.37244,-0.5112774,0.05908934,-0.8947926,-0.8224118,-0.5168717,-1.329245,-1.320788,0.1010087,-0.4572858,-0.8825913,-0.7881457,-0.7697539,-0.7444086,-1.52558,-0.9752663,-1.323103,-0.1963496,-0.5335105,-0.1824225,-1.112467,0.5650682,0.2397007,0.5661616,0.4533417,0.3840645,0.3591554,0.4583464,0.1897748,0.400685,-0.2431461,0.6462775,0.7740358,0.5408321,0.5409087,0.4851998,0.3816386,0.2864599,0.6220055,0.8655356,0.8391963
23.50044,-0.500733,0.04325732,-0.9681005,-0.8868909,-0.5804337,-1.412845,-1.411802,0.06030115,-0.4922563,-0.8939053,-0.8428778,-0.8178799,-0.797434,-1.642109,-1.072301,-1.427708,-0.2432489,-0.5979605,-0.2459789,-1.191158,0.5454875,0.2418566,0.5720881,0.4575443,0.3789266,0.3557905,0.4518586,0.2016371,0.3957896,-0.2500197,0.6496849,0.7736321,0.5395509,0.5414286,0.4748895,0.3757012,0.2857611,0.6207928,0.8713434,0.8421242
23.62844,-0.5774081,0.01349065,-1.032948,-0.953226,-0.6574148,-1.500857,-1.503744,0.04713328,-0.5556468,-0.914417,-0.8884799,-0.8659024,-0.8561018,-1.747453,-1.174037,-1.536186,-0.2923306,-0.6153616,-0.3065295,-1.273721,0.5372298,0.2454361,0.5712823,0.4619563,0.3923737,0.3571338,0.4555858,0.2025759,0.4098898,-0.2431755,0.6512032,0.7793061,0.5438089,0.5422434,0.4790969,0.3908193,0.2833634,0.5942689,0.8750967,0.8468434
23.75644,-0.6180286,-0.01255048,-1.108313,-1.019549,-0.7073205,-1.584003,-1.598087,0.01822319,-0.6052323,-0.9290364,-0.9450952,-0.9071333,-0.9031307,-1.829913,-1.243874,-1.639277,-0.3210602,-0.6539776,-0.2834381,-1.208813,0.5454944,0.2453772,0.5774636,0.4679861,0.3777922,0.3574425,0.4552365,0.1940068,0.4048389,-0.2422741,0.6552326,0.7788395,0.5476008,0.5447974,0.4809328,0.3944984,0.2848434,0.6117008,0.8839977,0.8450813
23.88444,-0.5948539,-0.01587396,-0.9744195,-0.9288582,-0.6119628,-1.437979,-1.432509,0.06048183,-0.5305512,-0.900652,-0.8295897,-0.8205214,-0.7858561,-1.536618,-0.9974236,-1.393073,-0.2063553,-0.550975,-0.1441094,-1.046375,0.5788825,0.2517013,0.5732343,0.4721972,0.3926616,0.3654715,0.4623346,0.2010771,0.4054635,-0.2446049,0.6622533,0.7865313,0.5497924,0.5534986,0.4919502,0.3920357,0.2838351,0.6374701,0.8925843,0.8504764
24.01243,-0.4782536,0.04462713,-0.875563,-0.8227473,-0.4727213,-1.260498,-1.247148,0.1107943,-0.423122,-0.8712112,-0.7444697,-0.7393147,-0.7068371,-1.370132,-0.8393127,-1.21291,-0.1461857,-0.4495286,-0.1135106,-1.019212,0.5317404,0.2504421,0.5751747,0.478301,0.3963078,0.3771161,0.4734381,0.2077576,0.4014393,-0.2397637,0.6630444,0.7899833,0.5552443,0.5550353,0.493611,0.3921726,0.2867455,0.5871517,0.8926502,0.850222
24.14043,-0.4731676,0.09268556,-0.8751048,-0.8211337,-0.466654,-1.259019,-1.243494,0.1070627,-0.4095451,-0.8718531,-0.7485297,-0.7423702,-0.7307814,-1.404022,-0.8610662,-1.197104,-0.1436159,-0.4965915,-0.1352256,-1.046039,0.5537981,0.2501592,0.5722665,0.4830038,0.4090693,0.3792315,0.4714988,0.2152095,0.4114915,-0.2359028,0.6629035,0.7878357,0.5587795,0.5563961,0.4955875,0.3590717,0.2899532,0.6230456,0.8927478,0.8493214
24.26843,-0.5130025,0.1073829,-0.9007436,-0.8379671,-0.4687312,-1.292561,-1.275151,0.1232475,-0.4259433,-0.8775958,-0.7738954,-0.7587619,-0.7599781,-1.468939,-0.8970121,-1.308002,-0.1645462,-0.5270863,-0.1861586,-1.102846,0.5724413,0.2531981,0.5757573,0.4850501,0.4001281,0.3789328,0.4728427,0.2104174,0.4182133,-0.2344209,0.6631823,0.7868936,0.5591297,0.5592984,0.4866669,0.3924385,0.2877892,0.6150991,0.8907569,0.8492249
24.39643,-0.5312245,0.1031365,-0.9485563,-0.8934346,-0.51582,-1.368779,-1.348409,0.1188507,-0.4464747,-0.8848188,-0.8168237,-0.7996428,-0.8101241,-1.574957,-0.9934221,-1.359326,-0.207157,-0.5792494,-0.2456218,-1.182425,0.5542495,0.2612035,0.5779338,0.4898706,0.4020826,0.3788889,0.4659074,0.2134479,0.4164242,-0.2402998,0.6635107,0.7867042,0.563163,0.5596564,0.4905899,0.3846428,0.2889771,0.6215749,0.8934076,0.8529671
24.52443,-0.5657712,0.09115586,-1.020358,-0.9547867,-0.5780177,-1.457098,-1.439531,0.09877337,-0.5132231,-0.9001449,-0.8703653,-0.8461751,-0.8633205,-1.687813,-1.10258,-1.480292,-0.2596591,-0.6260163,-0.308394,-1.256751,0.5648332,0.2613012,0.5836954,0.492826,0.4028932,0.3799102,0.4645641,0.2045813,0.4273703,-0.2397093,0.6651976,0.7887826,0.5640487,0.5628656,0.4937916,0.3996803,0.2892486,0.5991392,0.8971291,0.8523592
24.65243,-0.6184185,0.06650499,-1.086316,-1.020883,-0.6301043,-1.542061,-1.53098,0.0736049,-0.5518782,-0.9143905,-0.9232324,-0.8904558,-0.9188116,-1.784456,-1.206386,-1.591372,-0.312627,-0.7095365,-0.3713291,-1.340131,0.5764077,0.265514,0.586511,0.4962239,0.4049179,0.3803995,0.4689125,0.2005142,0.4227517,-0.244331,0.6665907,0.7903681,0.5661288,0.5614504,0.4978686,0.4110224,0.2849693,0.6275993,0.9039528,0.8578724
24.78043,-0.6928481,0.03094919,-1.149646,-1.084967,-0.6953142,-1.622681,-1.600527,0.04441414,-0.5848945,-0.9300269,-0.9805418,-0.9408229,-0.9717405,-1.870337,-1.287691,-1.642432,-0.3472771,-0.7241334,-0.3515736,-1.28473,0.5782818,0.2734343,0.5868902,0.4989091,0.4070134,0.3802658,0.4637236,0.2103686,0.414405,-0.2428932,0.6693693,0.7977481,0.5696244,0.5645607,0.5017557,0.4052623,0.2867164,0.6406649,0.91024,0.8578362
24.90843,-0.6528895,0.02300508,-1.031793,-1.000417,-0.5931756,-1.485403,-1.457495,0.07741322,-0.5173295,-0.9100509,-0.8722224,-0.8487818,-0.8582642,-1.579654,-1.042468,-1.390229,-0.2409621,-0.6412838,-0.2048607,-1.114919,0.5824471,0.2739224,0.5866076,0.5042632,0.4111826,0.3862286,0.4785017,0.2098856,0.4207379,-0.2418897,0.6780751,0.7972519,0.5720069,0.5710171,0.5076649,0.3911924,0.2872028,0.6369227,0.9149577,0.8626311
25.03643,-0.5346423,0.08846772,-0.9242346,-0.8928208,-0.4673071,-1.310919,-1.263962,0.1156983,-0.4165683,-0.8786392,-0.7910566,-0.7684216,-0.7837579,-1.409095,-0.8713781,-1.256048,-0.1926911,-0.5659709,-0.1761697,-1.083925,0.5571697,0.2713954,0.5854025,0.5081227,0.4238115,0.3990865,0.4877543,0.2187978,0.4245143,-0.2412172,0.6794802,0.8015202,0.5797933,0.5753647,0.5045032,0.3906011,0.2891086,0.6297399,0.9161955,0.860588
25.16443,-0.5297016,0.1357085,-0.9204359,-0.8842657,-0.4303284,-1.299192,-1.230647,0.1524189,-0.4013397,-0.8775139,-0.7999042,-0.773039,-0.8037634,-1.42942,-0.8821802,-1.278297,-0.1950724,-0.5706353,-0.1929718,-1.105969,0.5689679,0.2726281,0.5836849,0.5112097,0.4144728,0.3987906,0.4775679,0.2105699,0.4315862,-0.2389768,0.6772605,0.8014916,0.5798915,0.5751989,0.5003455,0.4041812,0.2864787,0.633993,0.912319,0.8600199
25.29243,-0.5474175,0.1473864,-0.9434001,-0.9053288,-0.4411966,-1.332474,-1.266727,0.1616431,-0.3944846,-0.8755059,-0.8262156,-0.7939178,-0.8354605,-1.482723,-0.9264062,-1.305346,-0.2207715,-0.6026701,-0.2411242,-1.15927,0.5627483,0.2765345,0.588556,0.5160474,0.4179658,0.4011268,0.4830317,0.2219777,0.4229465,-0.2369296,0.6766394,0.8029385,0.5841235,0.576111,0.501893,0.3856196,0.289893,0.6206309,0.9117052,0.8591474
25.42042,-0.5572702,0.1488504,-0.9927009,-0.9494055,-0.4882136,-1.39999,-1.32471,0.1408686,-0.4338455,-0.8822204,-0.8716173,-0.8289394,-0.879825,-1.587842,-1.025483,-1.410506,-0.2628287,-0.6471766,-0.3006448,-1.232387,0.548676,0.2793208,0.592465,0.5173696,0.4248048,0.4001454,0.4813767,0.2218197,0.4275467,-0.242642,0.6739669,0.8037522,0.5855309,0.5793004,0.5065274,0.4232487,0.2914633,0.6162962,0.9120114,0.8593044
25.54842,-0.6469663,0.1258577,-1.055689,-1.011481,-0.5374638,-1.484232,-1.40966,0.1208731,-0.4799075,-0.8991833,-0.9232494,-0.8812329,-0.9358463,-1.693158,-1.122355,-1.46905,-0.3085229,-0.7052208,-0.3592176,-1.309982,0.5868376,0.2845134,0.5930077,0.521543,0.4162726,0.3996329,0.4777326,0.2284207,0.440743,-0.2368975,0.674295,0.8045406,0.5863703,0.5757568,0.5062148,0.3905394,0.2894453,0.6301561,0.9137193,0.8620567
25.67642,-0.7044576,0.1033256,-1.122702,-1.066046,-0.5943689,-1.56369,-1.491449,0.10302,-0.5165917,-0.9166579,-0.9748477,-0.9285004,-0.987881,-1.797491,-1.2222,-1.588292,-0.3633694,-0.7727495,-0.4200501,-1.389284,0.5988514,0.2837452,0.5961922,0.5208654,0.4152246,0.3985386,0.47717,0.2218911,0.4310034,-0.2381295,0.6753871,0.8042858,0.5855396,0.5791553,0.5126117,0.4106692,0.2886103,0.6259103,0.916757,0.8636259
25.80442,-0.7238377,0.07073065,-1.200799,-1.133353,-0.6690618,-1.642029,-1.573814,0.07664882,-0.5633919,-0.9275321,-1.007543,-0.968259,-1.021147,-1.821232,-1.247483,-1.584098,-0.351801,-0.7090656,-0.3438037,-1.259907,0.579771,0.2877578,0.5996408,0.526884,0.4268351,0.3974057,0.4732818,0.2264413,0.4320245,-0.2386522,0.6797599,0.8117527,0.5904683,0.5815879,0.5154777,0.392595,0.2886086,0.6209523,0.9238365,0.8631431
25.93242,-0.6386952,0.08610853,-1.03856,-1.009725,-0.5250889,-1.453366,-1.368464,0.09766702,-0.4767269,-0.9000984,-0.8951275,-0.8640044,-0.8983267,-1.537217,-0.9976643,-1.417673,-0.2710854,-0.6619416,-0.2314075,-1.135058,0.571963,0.2884249,0.5945844,0.5333609,0.4312167,0.4062341,0.4874772,0.2484084,0.4467928,-0.2370509,0.6861256,0.8136622,0.5940043,0.5894231,0.5166816,0.4356936,0.287478,0.6242839,0.9263355,0.8649959
26.06042,-0.5982643,0.1467078,-0.9593076,-0.9221352,-0.4137785,-1.31644,-1.216842,0.1587332,-0.396531,-0.8830606,-0.8380212,-0.8064094,-0.8545258,-1.439687,-0.9254471,-1.321075,-0.251366,-0.615342,-0.227513,-1.136042,0.589348,0.2864676,0.5973167,0.539582,0.4301334,0.4123387,0.4886872,0.2363736,0.442472,-0.2316414,0.6844335,0.8128347,0.5965677,0.5936491,0.532962,0.4225627,0.2931567,0.6132133,0.9240705,0.8623777
26.18842,-0.581845,0.1734475,-0.972985,-0.9269511,-0.414151,-1.339086,-1.228154,0.1590492,-0.3927411,-0.8778073,-0.8515027,-0.8198767,-0.8789365,-1.470784,-0.9399836,-1.363884,-0.254255,-0.6191751,-0.2457151,-1.160182,0.5695646,0.2887938,0.5939713,0.5356745,0.4365759,0.4120631,0.4830668,0.2419585,0.4490845,-0.2402469,0.6836288,0.8120773,0.5963015,0.5952538,0.521858,0.4220449,0.2933186,0.6099384,0.9206951,0.8596174
26.31642,-0.6299537,0.177028,-1.010535,-0.9554276,-0.4358136,-1.38256,-1.275062,0.1498672,-0.4046425,-0.8865711,-0.8828095,-0.8486499,-0.9103712,-1.536706,-1.001366,-1.37451,-0.2841787,-0.7159851,-0.3009343,-1.225825,0.6124168,0.2946147,0.5967443,0.5380143,0.4380539,0.4107729,0.4885184,0.2505479,0.4494193,-0.2346534,0.6837244,0.8116757,0.6000192,0.588834,0.5198981,0.4028009,0.2912309,0.6407986,0.919826,0.8612441
26.44442,-0.6454326,0.1698837,-1.066601,-1.008556,-0.4885606,-1.465877,-1.355187,0.1498722,-0.4368095,-0.892087,-0.9348038,-0.8902022,-0.9627478,-1.650923,-1.10095,-1.469562,-0.3291919,-0.7422407,-0.3620369,-1.299979,0.5809159,0.29513,0.5992022,0.5415787,0.4369262,0.4138767,0.4824631,0.2439374,0.4368121,-0.2346074,0.6792437,0.8123629,0.6037712,0.5903335,0.5216227,0.4020354,0.2898842,0.6291025,0.9174622,0.8581101
26.57242,-0.6795651,0.1470851,-1.134673,-1.071739,-0.5502012,-1.551138,-1.440092,0.1179608,-0.491607,-0.9054888,-0.9855467,-0.9417956,-1.014179,-1.761839,-1.203841,-1.568337,-0.3835087,-0.8039398,-0.4177218,-1.383912,0.5781112,0.2935842,0.6025067,0.5418958,0.4339544,0.4094417,0.4792336,0.2500449,0.4388562,-0.2401391,0.6808662,0.8136505,0.5999576,0.5884061,0.5179854,0.4044,0.291669,0.626671,0.9184614,0.8633937
26.70041,-0.7679677,0.1093441,-1.20249,-1.132453,-0.6067033,-1.633067,-1.523905,0.08930528,-0.5420133,-0.9258794,-1.036066,-0.9975452,-1.068477,-1.866036,-1.306075,-1.709409,-0.433346,-0.8849845,-0.4790788,-1.466611,0.6122673,0.2982686,0.6058054,0.5429877,0.4302382,0.4067281,0.4763087,0.2430948,0.4534711,-0.2365903,0.6832784,0.8184979,0.6014377,0.5902151,0.5181652,0.4406511,0.2898414,0.6291719,0.9198053,0.8658
26.82841,-0.7697422,0.07274531,-1.274523,-1.192955,-0.6799215,-1.717027,-1.611125,0.06178422,-0.5910934,-0.9378645,-1.07249,-1.029363,-1.094453,-1.90383,-1.326433,-1.751207,-0.4243498,-0.8615092,-0.3979086,-1.328026,0.5827276,0.2965438,0.6073396,0.544066,0.4345345,0.4106456,0.4769859,0.2322673,0.4485729,-0.2380812,0.6827907,0.8208989,0.6030742,0.6001223,0.5247331,0.452886,0.2877873,0.6637911,0.9257709,0.865939
26.95641,-0.709747,0.08431889,-1.097593,-1.061245,-0.5425002,-1.52246,-1.399664,0.1036417,-0.4750651,-0.9125165,-0.9502357,-0.9203313,-0.9726511,-1.598567,-1.074065,-1.473772,-0.3299315,-0.7232324,-0.2685834,-1.177688,0.5926878,0.2961025,0.6005456,0.5496409,0.4378836,0.4162716,0.4912991,0.2500555,0.4442449,-0.2370891,0.6909874,0.8230528,0.6080992,0.6035278,0.5330145,0.4194861,0.2899622,0.6529089,0.92745,0.8650298
27.08441,-0.64355,0.1327586,-1.003576,-0.960106,-0.420792,-1.368733,-1.22345,0.155078,-0.3916603,-0.8882907,-0.8800073,-0.8498107,-0.9083281,-1.466751,-0.9758971,-1.305292,-0.3001818,-0.6584026,-0.2555858,-1.172328,0.5919048,0.3009537,0.6028399,0.5533065,0.444926,0.4242055,0.4954755,0.2456744,0.4497682,-0.2379776,0.6896287,0.8201097,0.6099669,0.6025913,0.5363564,0.3941782,0.2914846,0.6087501,0.9247493,0.8669022
27.21241,-0.6580113,0.1667962,-1.015757,-0.9616974,-0.4141994,-1.379498,-1.231103,0.1664032,-0.3836821,-0.8913141,-0.8931759,-0.8665107,-0.9264355,-1.493201,-0.994529,-1.36239,-0.2964132,-0.6691527,-0.26838,-1.190097,0.6072004,0.2977077,0.6032684,0.5544629,0.4428905,0.4227484,0.4952613,0.2420409,0.444473,-0.2348137,0.6895679,0.8221847,0.6107971,0.6024639,0.5284665,0.4193502,0.2919091,0.6128517,0.9195982,0.8623982
27.34041,-0.670267,0.1697322,-1.044441,-0.982345,-0.421341,-1.419854,-1.261482,0.1851402,-0.3928137,-0.8996036,-0.9223737,-0.8900982,-0.9566752,-1.564709,-1.058273,-1.434322,-0.3229439,-0.7292312,-0.3212281,-1.24851,0.5961975,0.2997028,0.6075768,0.5565252,0.435036,0.4216281,0.4859073,0.235618,0.4506052,-0.2317901,0.6864638,0.8263216,0.6170134,0.6018716,0.5371249,0.4232392,0.2930967,0.6235018,0.9168026,0.8605603
27.46841,-0.6663232,0.1583492,-1.089778,-1.031324,-0.4829959,-1.499751,-1.337711,0.1429968,-0.4263522,-0.9014338,-0.96456,-0.9258189,-0.9966365,-1.679899,-1.136553,-1.541999,-0.3604053,-0.7750163,-0.3746843,-1.328877,0.5961096,0.305046,0.6069289,0.5560082,0.4407769,0.4207921,0.4812566,0.2562279,0.4392235,-0.2368514,0.6845239,0.8205333,0.6175128,0.6056235,0.5240021,0.4380418,0.2921496,0.6337358,0.9147187,0.8634037
27.59641,-0.7221042,0.1318126,-1.16507,-1.093886,-0.5516688,-1.584185,-1.425014,0.1141011,-0.4837236,-0.9267034,-1.015314,-0.9728968,-1.051131,-1.786225,-1.256039,-1.641481,-0.4074525,-0.8206719,-0.4379748,-1.410671,0.5946947,0.3030512,0.6115847,0.5585948,0.4441604,0.4200217,0.4809248,0.255402,0.4521846,-0.2337018,0.6881081,0.8220561,0.6184832,0.601781,0.5280343,0.440937,0.2918871,0.6254205,0.918216,0.8673753
27.72441,-0.7428539,0.09849723,-1.22667,-1.152654,-0.6136777,-1.667701,-1.517497,0.07116488,-0.5305463,-0.9377471,-1.064218,-1.028287,-1.092797,-1.885493,-1.365124,-1.757039,-0.4613909,-0.9199566,-0.4961599,-1.487299,0.5823728,0.3038465,0.6123322,0.5587648,0.4384367,0.4175467,0.480715,0.2558911,0.4531744,-0.2366763,0.6893788,0.8295006,0.6157864,0.6024257,0.5365898,0.4457441,0.2905346,0.6397485,0.9194402,0.8683943
27.85241,-0.8299729,0.05628419,-1.297011,-1.218349,-0.6864195,-1.749329,-1.606234,0.05483449,-0.5642999,-0.9550196,-1.105627,-1.063945,-1.128571,-1.948412,-1.407448,-1.809501,-0.4536586,-0.8161588,-0.4287249,-1.365881,0.5942655,0.3083021,0.6160141,0.5607738,0.4362527,0.4194029,0.4776341,0.2469943,0.4422749,-0.235105,0.6930161,0.834062,0.6210365,0.6084564,0.5404634,0.4484298,0.2894925,0.6164761,0.925743,0.8695339
27.98041,-0.7956925,0.05997168,-1.133112,-1.096768,-0.5687631,-1.579547,-1.418303,0.09247484,-0.4824363,-0.9342597,-0.9841481,-0.9576799,-1.001472,-1.642352,-1.157017,-1.537496,-0.3583003,-0.7397153,-0.2925633,-1.206613,0.6256374,0.3050831,0.6152502,0.5684308,0.4463426,0.423985,0.4909631,0.2526922,0.4592631,-0.2323464,0.698372,0.8338891,0.624982,0.608515,0.5411443,0.4229379,0.2922967,0.6382035,0.927984,0.8720787
28.10841,-0.6978248,0.1106236,-1.026658,-0.9830731,-0.457898,-1.418253,-1.241097,0.1225929,-0.4043785,-0.9059305,-0.9107761,-0.8825694,-0.930751,-1.500046,-1.03725,-1.402303,-0.3137591,-0.7037058,-0.2673771,-1.186095,0.6120056,0.3035166,0.6151844,0.5711346,0.4566518,0.4335497,0.4969052,0.2738283,0.4592789,-0.2307752,0.6975664,0.8340673,0.6277195,0.6105462,0.5465371,0.419847,0.2944683,0.6474637,0.9239782,0.8711163
28.2364,-0.6630198,0.1376754,-1.029001,-0.9795024,-0.4272907,-1.423051,-1.238646,0.1526618,-0.3751928,-0.9031994,-0.9194717,-0.8882611,-0.9422588,-1.522428,-1.054631,-1.458664,-0.3074373,-0.7245897,-0.2834234,-1.203792,0.5937733,0.3052994,0.6183265,0.5722905,0.4461997,0.4334502,0.4961592,0.2567281,0.4531021,-0.2329211,0.6954452,0.8347174,0.630275,0.6086795,0.5443298,0.445015,0.2926943,0.6508794,0.9211356,0.8673545
28.3644,-0.6858085,0.148589,-1.046402,-0.9995601,-0.4477575,-1.457374,-1.26814,0.1446981,-0.3928077,-0.9059584,-0.9408925,-0.9057307,-0.9601956,-1.587057,-1.108194,-1.547111,-0.3230419,-0.7376236,-0.3252827,-1.257844,0.5975963,0.3015378,0.6198943,0.5767369,0.4442982,0.4309302,0.4873786,0.2605921,0.4526678,-0.2325769,0.6934471,0.8345616,0.6320946,0.6064022,0.5478771,0.4567573,0.2927086,0.6428362,0.9169791,0.8680514
28.4924,-0.6916273,0.1343889,-1.095348,-1.047615,-0.5035256,-1.53322,-1.34126,0.1452511,-0.4346462,-0.9175749,-0.9861827,-0.9434768,-1.002884,-1.687909,-1.195606,-1.590215,-0.3587707,-0.7549232,-0.3808644,-1.338377,0.5981404,0.3046413,0.6243243,0.5785528,0.4526145,0.4312464,0.4871577,0.2508384,0.4547559,-0.2306414,0.6940612,0.8353862,0.6371491,0.6067658,0.5408369,0.427207,0.2917492,0.6311524,0.9150213,0.8705967
28.6204,-0.7268922,0.1041068,-1.160153,-1.105914,-0.5704524,-1.617565,-1.429747,0.1071719,-0.4627989,-0.9290501,-1.033832,-0.9934009,-1.051044,-1.801111,-1.293539,-1.705905,-0.4073554,-0.7637326,-0.437526,-1.416011,0.5944856,0.3044588,0.6240132,0.5782128,0.4437372,0.4307855,0.4819891,0.2693682,0.4475432,-0.2337235,0.6978515,0.837274,0.6382906,0.606082,0.535982,0.4432719,0.29767,0.6118962,0.917806,0.8716425
28.7484,-0.8284467,0.06807499,-1.227146,-1.168259,-0.6360748,-1.699017,-1.521485,0.07608133,-0.5393318,-0.9457655,-1.077129,-1.036799,-1.093115,-1.900956,-1.397195,-1.80312,-0.4599687,-0.8763459,-0.4967732,-1.497197,0.6176818,0.3071098,0.6286639,0.5810001,0.4459603,0.4305453,0.4829854,0.2592736,0.4619403,-0.2375911,0.6988131,0.8395479,0.6379939,0.6074926,0.5469173,0.4572446,0.2970147,0.6521548,0.9211197,0.8756292
28.8764,-0.8461075,0.02687256,-1.301406,-1.230264,-0.7070527,-1.782584,-1.6105,0.03093936,-0.5922315,-0.9597588,-1.12497,-1.074072,-1.135413,-1.984541,-1.47774,-1.885051,-0.4743424,-0.8429901,-0.4548702,-1.399372,0.6182376,0.3077037,0.6333975,0.5821433,0.4499198,0.4303372,0.4825886,0.2679328,0.4667282,-0.2335204,0.6988888,0.8411278,0.6412793,0.6112194,0.5510159,0.4513262,0.2938028,0.6342788,0.9227563,0.8723559
29.0044,-0.77918,0.02023853,-1.142498,-1.126555,-0.6140428,-1.644178,-1.451206,0.0649971,-0.4893586,-0.945195,-1.008154,-0.9804718,-1.011875,-1.692658,-1.222414,-1.622775,-0.3635931,-0.7151052,-0.3115361,-1.223696,0.5998589,0.3092096,0.6297132,0.5870966,0.4563995,0.4331803,0.4899154,0.2692614,0.4566517,-0.2332212,0.7058879,0.8466128,0.6432266,0.6121716,0.5391036,0.4386327,0.2957967,0.6570652,0.9316047,0.8784363
29.1324,-0.6992745,0.06588845,-1.02848,-1.007207,-0.4844882,-1.47014,-1.271732,0.124776,-0.3976336,-0.9165183,-0.9237185,-0.8947137,-0.9312502,-1.518536,-1.085094,-1.521745,-0.3074366,-0.6699471,-0.2691359,-1.186408,0.6034807,0.3059616,0.6305923,0.5936414,0.4498149,0.442318,0.5018838,0.2536737,0.4594191,-0.2323448,0.7067786,0.8443128,0.6470097,0.6118997,0.5502335,0.4639872,0.2995328,0.6344832,0.9265203,0.8753251
29.2604,-0.7083673,0.09169678,-1.013763,-0.9914423,-0.4754511,-1.460246,-1.243812,0.1350801,-0.4048417,-0.9192127,-0.9261564,-0.8929363,-0.9323266,-1.535817,-1.093633,-1.501995,-0.295693,-0.6475197,-0.2829268,-1.201304,0.6302775,0.3064228,0.6298992,0.5973672,0.457111,0.443062,0.4939083,0.2603222,0.4676527,-0.2274786,0.7059186,0.8454078,0.6473885,0.6100009,0.5494319,0.4577549,0.2983221,0.6263455,0.9210876,0.8751638
29.3884,-0.6621125,0.0975964,-1.0253,-1.005242,-0.4730384,-1.490204,-1.268337,0.1249725,-0.389053,-0.913532,-0.9390153,-0.9080573,-0.9484479,-1.587109,-1.13962,-1.551258,-0.3086067,-0.6633161,-0.3271293,-1.250452,0.602146,0.3045233,0.6339145,0.5992264,0.4500332,0.4437032,0.4909103,0.262326,0.458104,-0.2309067,0.7050509,0.8474923,0.6527587,0.6073647,0.5549166,0.4598635,0.2991549,0.6382732,0.919955,0.8731777
29.5164,-0.6959935,0.08816395,-1.064089,-1.046637,-0.528039,-1.561261,-1.336963,0.1130328,-0.4263705,-0.9232011,-0.9763582,-0.9387522,-0.9838037,-1.684593,-1.21776,-1.600829,-0.3410694,-0.7560698,-0.3730026,-1.324656,0.6164151,0.3069026,0.6366571,0.5973589,0.4549913,0.4430973,0.4863972,0.2629838,0.4587422,-0.2327449,0.7078421,0.8460904,0.6554193,0.6083562,0.5488858,0.4353205,0.2982334,0.6435251,0.9168683,0.8740875
29.64439,-0.7168061,0.05866378,-1.134071,-1.108273,-0.5897222,-1.640381,-1.429718,0.104513,-0.4715572,-0.9441445,-1.015674,-0.981161,-1.028948,-1.791358,-1.328019,-1.698586,-0.3873938,-0.7771712,-0.4328845,-1.404973,0.611044,0.3091482,0.640178,0.6016482,0.4451103,0.4419021,0.4839532,0.2566844,0.4597275,-0.2320564,0.7071551,0.848106,0.6543655,0.6077573,0.5492095,0.4433368,0.2955312,0.6426719,0.9217721,0.8782319
29.77239,-0.7555034,0.0297336,-1.196679,-1.170252,-0.6566921,-1.717144,-1.507424,0.06080971,-0.5132448,-0.9654081,-1.064961,-1.026865,-1.072188,-1.886869,-1.420783,-1.828554,-0.4418918,-0.8518906,-0.4913321,-1.482716,0.5789577,0.3055966,0.6416726,0.6055629,0.4479034,0.4423495,0.4803962,0.258662,0.4670093,-0.2332825,0.7110049,0.8551922,0.6577573,0.6072191,0.5498251,0.4801276,0.2985391,0.6517009,0.9221545,0.879901
29.90039,-0.823229,-0.007959021,-1.263641,-1.235849,-0.7283655,-1.803632,-1.604857,0.03377438,-0.5625785,-0.9770407,-1.11643,-1.070728,-1.117625,-1.982053,-1.486353,-1.936704,-0.4641242,-0.8284969,-0.4647975,-1.40816,0.6000453,0.310471,0.6472899,0.6077116,0.4549046,0.4432679,0.4839452,0.2469724,0.4535361,-0.2331463,0.7157689,0.8557413,0.6615911,0.6160564,0.547479,0.4676225,0.2919281,0.6408667,0.9271104,0.8771371
30.02839,-0.8147427,-0.01646226,-1.110125,-1.139905,-0.6350931,-1.680866,-1.465795,0.0459166,-0.5113954,-0.966265,-1.00066,-0.9748465,-0.9947761,-1.695386,-1.263969,-1.663573,-0.3460409,-0.6959588,-0.3098367,-1.207753,0.6306231,0.3094873,0.6422529,0.6120089,0.4536591,0.4447631,0.4871468,0.2607587,0.4732528,-0.2272092,0.7191685,0.857692,0.6593409,0.6171663,0.5587529,0.4676689,0.2955445,0.6557887,0.9305431,0.8803009
30.15639,-0.6782832,0.03030958,-0.9840585,-1.010092,-0.5163992,-1.500821,-1.274086,0.07868165,-0.4027374,-0.9369472,-0.9159023,-0.888027,-0.9110584,-1.50463,-1.098724,-1.535377,-0.2792961,-0.673856,-0.266033,-1.161855,0.6117178,0.3072666,0.643951,0.6156542,0.4643439,0.4534462,0.5004197,0.2642158,0.4717539,-0.2291462,0.7242746,0.861923,0.6664928,0.6174712,0.5560142,0.4674898,0.2935351,0.6636207,0.9295661,0.8802988
30.28439,-0.6625642,0.06504891,-0.9559119,-0.9842377,-0.486749,-1.481958,-1.246084,0.1144625,-0.3907051,-0.9343495,-0.9085045,-0.8741375,-0.908343,-1.509668,-1.105838,-1.512603,-0.2724464,-0.619441,-0.2733235,-1.168835,0.6065695,0.3071396,0.6449359,0.6174157,0.4617859,0.4554235,0.4979212,0.2586423,0.4687452,-0.2311602,0.7237896,0.8601823,0.6653669,0.6149525,0.558934,0.4734848,0.3009472,0.6554252,0.9253574,0.877979
30.41239,-0.6417271,0.07466835,-0.961646,-0.9966892,-0.4856902,-1.498302,-1.256762,0.1088903,-0.3711014,-0.9275832,-0.9215472,-0.8719853,-0.9174978,-1.547608,-1.12186,-1.525505,-0.2827694,-0.6696029,-0.3094887,-1.207764,0.6114937,0.3049963,0.647284,0.6213989,0.4559679,0.45457,0.4928043,0.2678818,0.4651882,-0.2335476,0.7252724,0.8578779,0.6684477,0.6150064,0.5498947,0.4394779,0.2977436,0.648243,0.9218412,0.8732355
30.54039,-0.6510894,0.0614478,-0.9974387,-1.036197,-0.5300518,-1.558428,-1.315637,0.1032615,-0.4036089,-0.9330201,-0.954636,-0.9024226,-0.9487405,-1.630367,-1.205904,-1.600805,-0.3124636,-0.6951517,-0.3606114,-1.282834,0.6073884,0.3072066,0.649817,0.6224344,0.4541328,0.4559363,0.4902434,0.2633504,0.467263,-0.2374713,0.7235615,0.8616689,0.6733246,0.6133648,0.5486876,0.4432833,0.2961799,0.6453257,0.9213637,0.8760422
30.66839,-0.6793971,0.04173715,-1.055312,-1.09291,-0.5795726,-1.633161,-1.399645,0.08864269,-0.4521124,-0.9547264,-0.9936788,-0.9454449,-0.9895731,-1.724084,-1.283231,-1.689749,-0.3535463,-0.7567554,-0.4126482,-1.350638,0.5944777,0.3081734,0.6549705,0.6253983,0.4457875,0.456376,0.4905642,0.2540177,0.4727185,-0.233672,0.7242982,0.8653044,0.6734494,0.6143239,0.5451794,0.4424039,0.2965427,0.6735586,0.9238319,0.8756124
30.79639,-0.7305166,0.01420215,-1.113216,-1.150926,-0.6512765,-1.70318,-1.477099,0.0458087,-0.4924431,-0.9645485,-1.035282,-0.9824373,-1.031804,-1.817285,-1.368414,-1.81099,-0.4039969,-0.7716056,-0.4646202,-1.424418,0.600756,0.3074215,0.6573114,0.6279337,0.455692,0.4570691,0.492173,0.2641968,0.4714945,-0.2370904,0.7295188,0.8658978,0.6756266,0.6163208,0.5504307,0.4713434,0.299464,0.635277,0.92359,0.8766227
30.92439,-0.774279,-0.02373974,-1.175452,-1.21213,-0.7176366,-1.774434,-1.56102,0.01815732,-0.5364338,-0.9687065,-1.064993,-1.009957,-1.052245,-1.838846,-1.385479,-1.804298,-0.3813397,-0.7217202,-0.393778,-1.278031,0.623273,0.3109532,0.6629122,0.6327605,0.455352,0.4568346,0.4911661,0.2740457,0.4742308,-0.2323127,0.7302951,0.8699508,0.6792706,0.6156861,0.5525705,0.4651854,0.297692,0.644514,0.9317006,0.8741588
31.05239,-0.6762835,-0.01340208,-0.9866803,-1.074083,-0.5951685,-1.601641,-1.359437,0.07847852,-0.4257121,-0.9381282,-0.94444,-0.896068,-0.9264739,-1.558645,-1.150722,-1.598721,-0.2781412,-0.6190574,-0.2745538,-1.135639,0.6026321,0.3104258,0.6548572,0.6360059,0.4590503,0.4623056,0.5025482,0.2650961,0.471797,-0.2293445,0.7377967,0.8710521,0.6832902,0.6242499,0.5540377,0.4759039,0.2969865,0.6452404,0.9357033,0.8757882
31.18038,-0.6506287,0.03832062,-0.8801285,-0.9638752,-0.4810491,-1.456594,-1.204282,0.1152841,-0.3418542,-0.9235147,-0.8721803,-0.8295921,-0.8606191,-1.429428,-1.035728,-1.471046,-0.2436799,-0.5868549,-0.2537678,-1.119945,0.6362164,0.3066849,0.6576778,0.6379159,0.4562418,0.4679969,0.5084938,0.2639554,0.4728709,-0.2227783,0.73981,0.8696082,0.6812463,0.6181896,0.5473548,0.475643,0.3033214,0.6486111,0.9327974,0.874643
31.30838,-0.6096767,0.06089044,-0.883448,-0.961636,-0.4692421,-1.462283,-1.201697,0.1184229,-0.3379762,-0.9087903,-0.8635612,-0.8228251,-0.8613828,-1.425012,-1.035117,-1.485845,-0.2250949,-0.6029994,-0.2599516,-1.129542,0.6107839,0.3063997,0.6574572,0.6425622,0.4529312,0.471469,0.5058992,0.2679062,0.482073,-0.2300553,0.7419841,0.8704536,0.6823092,0.6173612,0.5495315,0.4749342,0.3019753,0.6555809,0.9290621,0.8697832
31.43638,-0.6022368,0.06609581,-0.8941761,-0.9681629,-0.491639,-1.483328,-1.227372,0.1294382,-0.3398193,-0.8998973,-0.8813611,-0.8289604,-0.8742379,-1.475302,-1.064529,-1.507667,-0.2482838,-0.6354287,-0.3006361,-1.184267,0.6103958,0.3077258,0.6550623,0.6406106,0.4556333,0.4684689,0.5029092,0.2788858,0.4848544,-0.2217177,0.7413403,0.8724849,0.6881251,0.61707,0.5425034,0.4601714,0.3021637,0.663059,0.9243255,0.8674467
31.56438,-0.7025985,0.05646897,-0.9454157,-1.014873,-0.5317392,-1.545413,-1.290912,0.08706596,-0.3672373,-0.9203725,-0.9154375,-0.8645727,-0.9078181,-1.567764,-1.157635,-1.567804,-0.2907091,-0.643346,-0.3563541,-1.250919,0.6557683,0.307739,0.6619774,0.6454663,0.4512144,0.4699831,0.4981663,0.280521,0.4794309,-0.2215353,0.7445629,0.8753409,0.6906906,0.6183468,0.5509201,0.4542944,0.2966105,0.64648,0.9256136,0.8671522
31.69238,-0.6774114,0.03522453,-1.002727,-1.065631,-0.5836773,-1.6132,-1.365322,0.0653464,-0.4119225,-0.9448873,-0.9559887,-0.9004089,-0.9519778,-1.655931,-1.243269,-1.651841,-0.3407413,-0.6732914,-0.3986131,-1.322166,0.6205611,0.3086701,0.662703,0.6447751,0.4504206,0.4693052,0.4962739,0.2732049,0.4795683,-0.2314302,0.7488155,0.8741828,0.6908549,0.6196415,0.5498541,0.4577117,0.2960057,0.6233101,0.9279061,0.8703681
31.82038,-0.7247119,0.005138897,-1.058816,-1.11738,-0.6433101,-1.678967,-1.441188,0.04731249,-0.4446829,-0.9706967,-0.9930496,-0.9443877,-0.9973735,-1.744005,-1.334616,-1.769889,-0.3870182,-0.7717007,-0.4414199,-1.368051,0.6253483,0.3086354,0.6638305,0.6489672,0.4522533,0.4705304,0.4961341,0.2711095,0.4643174,-0.2400672,0.7502339,0.8794647,0.6931232,0.6202057,0.5474366,0.4714663,0.2966871,0.6694282,0.9305454,0.8684831
31.94838,-0.749674,-0.02261638,-1.012256,-1.098392,-0.615921,-1.650396,-1.416403,0.0485482,-0.4335256,-0.9808573,-0.9256561,-0.8908213,-0.9297454,-1.527363,-1.136806,-1.609017,-0.3038404,-0.6381122,-0.2733302,-1.098569,0.6110955,0.3065845,0.6591717,0.6506656,0.4476204,0.4711854,0.50351,0.2584054,0.4761423,-0.2403691,0.7562441,0.8782715,0.6933053,0.6145359,0.5390317,0.4871824,0.2911599,0.664735,0.9367459,0.8767844
32.07638,-0.5842669,0.0356704,-0.8203356,-0.9246263,-0.4236126,-1.405466,-1.143761,0.03169811,-0.3149093,-1.131064,-0.8130894,-0.7639334,-0.8088123,-1.241622,-0.9121749,-1.336035,-0.2329488,-0.4846508,-0.1694744,-0.9571441,0.6194426,0.3051901,0.6584331,0.6592475,0.4655261,0.4797141,0.5091478,0.2067957,0.466996,-0.2932328,0.7637721,0.8733115,0.6969817,0.6151352,0.5599674,0.4579789,0.2889528,0.631285,0.9389787,0.8833768
32.20438,-0.5240971,0.1182002,-0.7087364,-0.8414419,-0.3118588,-1.296579,-1.004409,0.02487704,-0.2391002,-1.263055,-0.7661852,-0.7119281,-0.7840588,-1.170722,-0.8451999,-1.311886,-0.2244903,-0.4712307,-0.1688466,-0.9425987,0.6679638,0.3106833,0.6596261,0.66922,0.4773299,0.484752,0.5130688,0.1543898,0.4558423,-0.3363919,0.764361,0.8697318,0.6979699,0.6171187,0.5483905,0.4944348,0.2869512,0.6430872,0.9365004,0.8867271
32.33237,-0.400069,0.1531078,-0.6628041,-0.8252323,-0.2595901,-1.277051,-0.9740906,0.01988548,-0.2136197,-1.365626,-0.7621092,-0.7042941,-0.7816529,-1.145739,-0.8384115,-1.246797,-0.2265473,-0.464249,-0.1875824,-0.9466126,0.6400991,0.3164421,0.6646181,0.6724786,0.4786522,0.4794301,0.5078996,0.1217842,0.4528095,-0.3638757,0.7692775,0.8682473,0.6987273,0.610584,0.5537126,0.4274281,0.2910916,0.6377323,0.9329451,0.8817608
32.46037,-0.3902478,0.182025,-0.6650196,-0.8463669,-0.2768863,-1.320667,-1.016136,0.02361722,-0.2130403,-1.371088,-0.7812784,-0.719556,-0.8060502,-1.200541,-0.8929275,-1.32259,-0.2451105,-0.4893557,-0.2317037,-1.002219,0.6657886,0.3190012,0.6700729,0.6743326,0.4829886,0.4803249,0.514706,0.1221683,0.4494173,-0.3588095,0.7657272,0.8687384,0.6990299,0.6069184,0.5530376,0.464664,0.2947124,0.6406887,0.9328598,0.8844616
32.58838,-0.4252461,0.1765046,-0.7113772,-0.8855359,-0.3309118,-1.394722,-1.089222,0.02881745,-0.2372652,-1.28857,-0.8261683,-0.7475126,-0.8365735,-1.297655,-0.9472004,-1.416313,-0.2380062,-0.5128031,-0.279428,-1.07717,0.6674028,0.3254013,0.6745626,0.673094,0.4834236,0.4829728,0.5145706,0.1796285,0.4674552,-0.327911,0.7660676,0.8756729,0.7010929,0.6171321,0.5440702,0.4789707,0.3002304,0.6363156,0.9283224,0.8801242
32.71637,-0.4708333,0.1525974,-0.7812437,-0.9371755,-0.4207307,-1.484267,-1.184774,0.1260291,-0.275746,-1.075267,-0.857037,-0.7913312,-0.8711963,-1.411347,-1.047443,-1.500332,-0.2510933,-0.640433,-0.3244678,-1.161425,0.6544372,0.3291328,0.6717917,0.6698291,0.4630286,0.4854632,0.5119509,0.2586846,0.4939215,-0.2520926,0.7617016,0.8836375,0.7006515,0.621922,0.5446157,0.4713528,0.3070777,0.6530713,0.9305667,0.8767785
32.84437,-0.527945,0.1082195,-0.8696797,-0.9876577,-0.5100515,-1.550796,-1.291132,0.1376971,-0.3171248,-0.9347739,-0.8678507,-0.7887985,-0.8694937,-1.397787,-0.9889441,-1.499492,-0.1837314,-0.5538728,-0.2307133,-1.00863,0.6362345,0.3227275,0.6697232,0.6669707,0.4659976,0.4829366,0.5171419,0.2845194,0.4920225,-0.2219088,0.763887,0.8873526,0.7079989,0.6189793,0.5632939,0.4879931,0.3140299,0.6438773,0.9295163,0.867373
32.97237,-0.5075402,0.1333186,-0.656705,-0.828216,-0.356514,-1.321549,-1.039437,0.2571073,-0.1818974,-0.6361524,-0.7457852,-0.6523398,-0.7213164,-1.091225,-0.6931881,-1.230364,-0.001156108,-0.4529732,-0.0700694,-0.8831347,0.650883,0.3245823,0.6717631,0.6747349,0.4582587,0.4880058,0.5207297,0.3783149,0.5192053,-0.1424517,0.7665985,0.8963584,0.7114024,0.6315522,0.5662298,0.4913139,0.3415299,0.657892,0.9314995,0.8512543
33.10037,-0.4297821,0.1847317,-0.541258,-0.6768194,-0.3162708,-1.162918,-0.8935267,0.4933183,-0.0785059,-0.0320399,-0.6731395,-0.544519,-0.6142175,-0.9721207,-0.5288246,-1.083946,0.1430951,-0.361137,-0.02729238,-0.9215262,0.5964842,0.3258065,0.6717886,0.6779245,0.4331084,0.4961172,0.5362235,0.5313885,0.5521742,-0.01616975,0.7510662,0.9048502,0.7172844,0.6338497,0.572887,0.4889616,0.3737222,0.6399795,0.9244163,0.8228095
33.22837,-0.5026845,0.1782379,-0.5752566,-0.6374506,-0.3900777,-1.169968,-0.9253005,0.5698773,-0.09961759,0.2863117,-0.6584823,-0.5362847,-0.6028848,-0.9979079,-0.5045465,-1.100549,0.1980107,-0.3850042,-0.02045739,-0.9661788,0.5772493,0.3180248,0.6659462,0.6779538,0.3899989,0.4939447,0.5295988,0.6015915,0.5756659,0.06679095,0.7458268,0.9088392,0.7145283,0.6324341,0.5633981,0.4893147,0.3818357,0.6694819,0.915867,0.8030357
33.35637,-0.5712689,0.1461523,-0.638944,-0.6427922,-0.4736623,-1.201851,-0.98151,0.5749509,-0.1082894,0.390051,-0.6518676,-0.5583599,-0.6170062,-1.068876,-0.5752633,-1.155095,0.1471843,-0.4551442,-0.06060439,-1.035527,0.5707989,0.3096976,0.6597028,0.6735308,0.3678834,0.4886934,0.5209565,0.6116775,0.5615771,0.09985517,0.7440341,0.9077612,0.7134166,0.6218687,0.5581091,0.5024633,0.3726523,0.6750033,0.9062847,0.7985994
33.48437,-0.6262783,0.1017603,-0.679383,-0.67795,-0.4958628,-1.247205,-1.048003,0.4117911,-0.1929953,0.1314316,-0.6663685,-0.5973439,-0.6550996,-1.150655,-0.6923295,-1.240301,-0.006313016,-0.5069475,-0.1175474,-1.059974,0.5650321,0.2898017,0.6551856,0.6714852,0.3636256,0.4840484,0.5037258,0.5285133,0.541923,0.01893395,0.7502622,0.8944418,0.7097579,0.6071177,0.5513451,0.4896709,0.3311808,0.6451526,0.9001285,0.8097423
33.61237,-0.6141118,0.07657584,-0.6888891,-0.7167922,-0.4783773,-1.277278,-1.060263,0.3055867,-0.1980887,-0.2433164,-0.7004887,-0.620773,-0.6964774,-1.192269,-0.7549814,-1.270246,-0.1261833,-0.5629804,-0.1749738,-1.077898,0.5764947,0.2784074,0.6632469,0.6709873,0.3803402,0.4813351,0.4970459,0.4184983,0.4860927,-0.06459682,0.7539766,0.885457,0.7123626,0.5990282,0.5355151,0.4674265,0.3062489,0.647472,0.8979445,0.8220599
33.74036,-0.6329591,0.07278067,-0.6944891,-0.7483326,-0.4587985,-1.310676,-1.081999,0.2074373,-0.2253558,-0.5591978,-0.7253535,-0.6561251,-0.7257115,-1.196516,-0.7939835,-1.317935,-0.1706356,-0.5736005,-0.1018165,-0.9344113,0.6197075,0.2733633,0.6732016,0.6748867,0.3943256,0.4820972,0.499159,0.3235219,0.4638072,-0.151074,0.7552813,0.8819774,0.7057462,0.5974001,0.525834,0.4625368,0.291923,0.6375089,0.9042587,0.831463
33.86837,-0.4984829,0.1209222,-0.5188709,-0.6232783,-0.2671846,-1.097978,-0.8396233,0.2312195,-0.1148339,-0.6929108,-0.5998834,-0.5137481,-0.584616,-0.8098824,-0.4967033,-1.013542,-0.08003522,-0.3808731,0.07822405,-0.7258123,0.6306669,0.2807866,0.6724989,0.6833295,0.4145285,0.4897477,0.5136936,0.2837329,0.4673441,-0.1894194,0.7611179,0.8823904,0.7046539,0.6078526,0.5362527,0.4834534,0.2880719,0.622534,0.906788,0.841862
33.99636,-0.3552269,0.2370632,-0.3689793,-0.4807386,-0.07806854,-0.8674386,-0.564221,0.3113438,0.05088508,-0.7306126,-0.4912697,-0.3704859,-0.4664097,-0.5689932,-0.3156246,-0.7932241,-0.03303757,-0.3208379,0.1430532,-0.6691332,0.6233773,0.28312,0.6717825,0.6848187,0.4323379,0.5021636,0.5217158,0.264984,0.4620503,-0.1931991,0.7636864,0.8795542,0.7055402,0.6130416,0.5364723,0.4612893,0.2868938,0.6304618,0.8992429,0.8383075
34.12436,-0.3051897,0.3014874,-0.334334,-0.4454426,-0.00582303,-0.8210567,-0.5001283,0.3319939,0.08456258,-0.7536227,-0.4771215,-0.349487,-0.4634892,-0.5381194,-0.3007584,-0.7905803,-0.02700773,-0.3215139,0.1518569,-0.6627379,0.6235915,0.288672,0.6750932,0.6830814,0.4291717,0.5021853,0.522414,0.2543109,0.4603134,-0.2144858,0.7611028,0.8788791,0.7006221,0.6130138,0.5276462,0.4727927,0.2905245,0.6358399,0.8941883,0.8382002
34.25236,-0.2509865,0.3462578,-0.3387036,-0.4382013,0.01640309,-0.8220575,-0.4914925,0.3594978,0.1012071,-0.7685755,-0.4798268,-0.3339226,-0.4718843,-0.5520483,-0.3370617,-0.8088904,-0.04502715,-0.2806726,0.1168611,-0.7018798,0.5973024,0.2891633,0.6751118,0.6756413,0.4294602,0.500228,0.5193138,0.247622,0.4582277,-0.2238652,0.7561864,0.8741053,0.6995566,0.6102481,0.5268667,0.4574756,0.2893332,0.6070253,0.8847945,0.8373274
34.38036,-0.3149349,0.3516308,-0.3818298,-0.4756843,-0.00524511,-0.8696919,-0.5440488,0.3498069,0.08273841,-0.8019516,-0.5057525,-0.3590261,-0.5104175,-0.6138805,-0.4003381,-0.8354413,-0.07853404,-0.3494152,0.07230441,-0.7588795,0.6336772,0.2955151,0.6754626,0.6718112,0.4291035,0.4948323,0.5186276,0.2543253,0.4640182,-0.2294161,0.7563058,0.873264,0.6945047,0.6071739,0.5144841,0.4602453,0.2847885,0.6180815,0.8803384,0.8365662
34.50836,-0.329834,0.3495391,-0.441998,-0.5201857,-0.04733222,-0.935921,-0.6050888,0.3193515,0.06241792,-0.8227022,-0.5461515,-0.3956374,-0.5446239,-0.6959521,-0.4801922,-0.9222242,-0.1249891,-0.3826968,0.02514536,-0.8162233,0.6216474,0.2903152,0.6718133,0.6711926,0.4271799,0.4933218,0.5124031,0.2673647,0.4548093,-0.2308399,0.7557474,0.8786371,0.6939769,0.6092525,0.5157554,0.4716959,0.2855079,0.6294274,0.8754616,0.8372551
34.63636,-0.3683854,0.3262305,-0.5026085,-0.5632634,-0.08604052,-0.9885513,-0.6698591,0.3151198,0.03350551,-0.8367198,-0.552845,-0.4045303,-0.5508789,-0.6541077,-0.4418288,-0.8897405,-0.08565716,-0.3204288,0.132774,-0.6562117,0.6261721,0.2905905,0.6699449,0.6666324,0.4196103,0.4907254,0.512362,0.243594,0.4531918,-0.2315978,0.7550422,0.8755398,0.6882774,0.611522,0.5155899,0.4835572,0.2828602,0.6260215,0.8800706,0.838659
34.76436,-0.2859698,0.3606863,-0.3424992,-0.4173207,0.07875478,-0.736847,-0.3977863,0.3620135,0.1779122,-0.8057231,-0.4099744,-0.2410513,-0.3814435,-0.3309196,-0.186026,-0.6102142,0.01325579,-0.1956779,0.3048592,-0.4842036,0.6221036,0.2906758,0.6646069,0.66473,0.4341046,0.5027702,0.5259471,0.2609645,0.4581333,-0.2266047,0.7577184,0.881424,0.6868817,0.6257489,0.5214689,0.4845969,0.2830558,0.6279116,0.8803772,0.8414114
34.89236,-0.2023741,0.4430177,-0.2099539,-0.2857124,0.239328,-0.5579113,-0.198831,0.4348931,0.2786765,-0.7830721,-0.3237139,-0.128807,-0.2888129,-0.1943439,-0.113602,-0.501002,0.04681251,-0.1782887,0.3406985,-0.4666727,0.622951,0.2902792,0.6644131,0.6626532,0.4277902,0.5078761,0.5368145,0.248019,0.4666809,-0.231715,0.7573126,0.8771324,0.6863167,0.6347067,0.5368168,0.4779309,0.2794292,0.6128303,0.8695941,0.8382967
35.02036,-0.1740697,0.4822372,-0.2355303,-0.2790353,0.2405311,-0.5484031,-0.1764764,0.4553351,0.3058904,-0.7788821,-0.3189028,-0.1148277,-0.2937626,-0.1835357,-0.09521419,-0.4887467,0.0457953,-0.1600841,0.3252867,-0.473929,0.6083603,0.2854439,0.6645119,0.6564022,0.4336908,0.5042948,0.5305811,0.2414385,0.4578053,-0.2383779,0.7545835,0.8738664,0.680654,0.6312968,0.5195035,0.4996716,0.282988,0.6283782,0.8634743,0.8337331
35.14835,-0.2030789,0.4965941,-0.2625647,-0.2934076,0.2450554,-0.5714141,-0.1951292,0.4417136,0.2815172,-0.7854683,-0.3395287,-0.1233087,-0.319368,-0.2322493,-0.16275,-0.5657635,0.01643368,-0.2073041,0.2731309,-0.5317067,0.5983124,0.2813725,0.6583279,0.6499383,0.4173275,0.4984547,0.5239664,0.2551774,0.4690232,-0.2392204,0.7491325,0.8742838,0.6765311,0.6264896,0.5157588,0.5080148,0.2786928,0.6364558,0.8553005,0.8329065
35.27636,-0.2247995,0.4831397,-0.3230262,-0.3316607,0.1962967,-0.6379445,-0.2650877,0.4391909,0.2526318,-0.7996038,-0.3858442,-0.162179,-0.3674664,-0.323001,-0.2371377,-0.5722741,-0.02588188,-0.2226865,0.2145014,-0.5938122,0.6003941,0.2811658,0.6603881,0.6414447,0.4154549,0.4952932,0.519542,0.2429042,0.4643033,-0.2367253,0.7498425,0.8726708,0.6697666,0.6250327,0.5043041,0.4746677,0.2771805,0.6257282,0.8508241,0.8297953
35.40435,-0.2234348,0.4523066,-0.3957951,-0.3896006,0.1330084,-0.7102426,-0.3400592,0.4058239,0.2102496,-0.8105535,-0.4322021,-0.1990827,-0.4141276,-0.4142357,-0.3234076,-0.649729,-0.07554943,-0.2738037,0.1601126,-0.6612399,0.5695384,0.2778049,0.6588219,0.6400194,0.4079204,0.4891953,0.5122873,0.2504795,0.4612671,-0.2332711,0.7463785,0.8667597,0.6688105,0.6221136,0.4962889,0.4538345,0.2741248,0.6171172,0.8490555,0.8284515
35.53235,-0.3154908,0.4098085,-0.468206,-0.4389681,0.06710222,-0.7885225,-0.4428653,0.3950043,0.1595379,-0.8149457,-0.4819972,-0.2545362,-0.4652365,-0.5206068,-0.4168655,-0.7590669,-0.1138136,-0.3337345,0.1558471,-0.6545185,0.5960972,0.2757257,0.6547522,0.6333981,0.4031232,0.4853341,0.5161633,0.2293458,0.4557908,-0.2354496,0.7460415,0.8707752,0.6701011,0.6227178,0.4947363,0.4695496,0.2704399,0.6242277,0.8482739,0.8275321
35.66035,-0.3457306,0.3855906,-0.3993518,-0.3878007,0.1214726,-0.6734521,-0.3087224,0.386214,0.2409728,-0.7875321,-0.3852113,-0.1502608,-0.3396371,-0.2337831,-0.1984783,-0.5268676,-0.006685127,-0.2127101,0.3524146,-0.4387974,0.6165071,0.275528,0.6481296,0.6358501,0.4121791,0.4917265,0.5227897,0.2575542,0.4546416,-0.2264295,0.7499341,0.8734296,0.6681004,0.6380766,0.5123076,0.5025965,0.2717642,0.6320294,0.8556819,0.8326024
35.78835,-0.242606,0.4514146,-0.2627071,-0.2441745,0.2679603,-0.4554076,-0.07450704,0.4401506,0.3572885,-0.7455976,-0.2635829,-0.007755872,-0.1932709,-0.02135091,-0.03539244,-0.2836215,0.06311347,-0.1081658,0.4464431,-0.3556441,0.6053146,0.2677103,0.6481574,0.6337469,0.4133407,0.4985992,0.5361874,0.2614369,0.4675963,-0.2234023,0.7507143,0.8720523,0.6689938,0.6502303,0.5240783,0.4858277,0.2748953,0.624195,0.8515366,0.8302063
35.91635,-0.1914324,0.4950992,-0.2330013,-0.2074266,0.3094286,-0.4175335,-0.0232742,0.4622256,0.3890848,-0.7487579,-0.255728,0.01223675,-0.1912007,-0.03044317,-0.05089911,-0.3027442,0.0594872,-0.08979195,0.4255791,-0.3715072,0.5770081,0.2647952,0.6502491,0.6285428,0.4096963,0.4965312,0.5300127,0.2500017,0.4530429,-0.2290536,0.746608,0.8684166,0.6621218,0.6471784,0.5123139,0.4873037,0.2689841,0.6045141,0.8421759,0.8265257
36.04435,-0.2107458,0.4964724,-0.2497002,-0.2173483,0.2850536,-0.4332672,-0.04266245,0.4451558,0.3789445,-0.7555314,-0.2715569,-0.006361629,-0.2145672,-0.07556469,-0.1050654,-0.3527374,0.04014603,-0.1384343,0.3779347,-0.4191966,0.5821126,0.2599056,0.6466739,0.6181368,0.4111854,0.4888495,0.5301373,0.2528348,0.452442,-0.2261114,0.7442145,0.8695515,0.6582733,0.643262,0.5103287,0.4800429,0.2666915,0.6069562,0.8371451,0.8257765
36.17235,-0.2386865,0.4726037,-0.3045608,-0.2584386,0.2366922,-0.5043473,-0.1163215,0.4421794,0.3533768,-0.7637879,-0.3133417,-0.04498262,-0.2651213,-0.1721812,-0.1862094,-0.3793265,-0.002794655,-0.1691106,0.3135294,-0.4866077,0.5938873,0.2560697,0.6441929,0.6131611,0.4004283,0.484812,0.5204966,0.2444728,0.4492943,-0.2316292,0.7390221,0.8641576,0.656823,0.6381671,0.5009466,0.4477939,0.2643746,0.6073731,0.8309866,0.8205158
