t_sec,abp_mmHg,resp_arbunit,spo2_unitless,scon_muS
0,128.0538,-0.4026064,0.9799718,5.295222
0.05002381,111.906,-0.5191428,0.9798071,5.295222
0.1007165,107.9643,-0.6568676,0.9798071,5.295222
0.1503268,104.4042,-0.8140153,0.9798071,5.295222
0.1989463,102.3698,-0.8175465,0.9799718,5.295222
0.249001,105.5485,-0.8069523,0.9798071,5.288763
0.2994452,106.82,-0.8016555,0.9799718,5.288763
0.350774,96.90242,-0.8051867,0.9798071,5.288763
0.3999831,95.37663,-0.7804671,0.9799718,5.288763
0.4494804,93.34225,-0.7151362,0.9798071,5.288763
0.499577,92.07076,-0.6815873,0.9799718,5.288763
0.5495278,91.43503,-0.6445078,0.9798071,5.288763
0.600513,90.67213,-0.5438624,0.9798071,5.288763
0.6505223,91.68932,-0.4449833,0.9798071,5.288763
0.6998162,127.2909,-0.2896012,0.9798071,5.288763
0.749402,124.4937,-0.1430477,0.9798071,5.288763
0.7992728,107.2015,0.007037612,0.9798071,5.282304
0.8499824,102.497,0.0970888,0.9799718,5.288763
0.900453,101.0983,0.1712477,0.9798071,5.282304
0.9500234,104.1499,0.2383442,0.9798071,5.288763
0.999704,106.9472,0.3178018,0.9799718,5.282304
1.049432,106.6929,0.3919607,0.9799718,5.282304
1.100303,96.90242,0.4608234,0.9798071,5.288763
1.150526,94.86804,0.5367485,0.9798071,5.262926
1.199707,93.46941,0.5738293,0.9798071,5.282304
1.24976,92.96081,0.6003138,0.9799718,5.282304
1.299489,92.19792,0.6250335,0.9799718,5.275845
1.350147,92.19792,0.6497544,0.9799718,5.275845
1.399977,107.2015,0.660348,0.9798071,5.275845
1.449986,122.4593,0.6532856,0.9799718,5.275845
1.49993,110.253,0.6621143,0.9798071,5.275845
1.549269,103.0055,0.6886001,0.9798071,5.275845
1.600394,101.0983,0.7027249,0.9799718,5.269385
1.649991,100.4626,0.7009599,0.9798071,5.275845
1.699944,107.9643,0.7009599,0.9798071,5.275845
1.749102,107.2015,0.7115535,0.9799718,5.275845
1.79898,97.66531,0.7009599,0.9796425,5.275845
1.850104,94.86804,0.6886001,0.9798071,5.275845
1.900684,93.72369,0.6409258,0.9798071,5.269385
1.949614,94.48659,0.5438122,0.9798071,5.269385
1.999073,93.85085,0.3972581,0.9799718,5.275845
2.048943,99.44539,0.3142706,0.9798071,5.269385
2.100021,120.4249,0.2789561,0.9796425,5.269385
2.150746,126.2737,0.2542365,0.9799718,5.262926
2.19951,107.5829,0.2065622,0.9798071,5.262926
2.249105,104.1499,0.1076824,0.9798071,5.262926
2.299905,99.95398,0.05471127,0.9799718,5.262926
2.350986,107.5829,-0.005322854,0.9798071,5.269385
2.400916,108.2186,-0.04769973,0.9799718,5.262926
2.449903,105.2942,-0.0918422,0.9798071,5.262926
2.49997,97.28386,-0.1448133,0.9798071,5.269385
2.549162,97.15671,-0.1624705,0.9798071,5.262926
2.599946,96.52097,-0.1942532,0.9799718,5.262926
2.650867,96.01237,-0.2454587,0.9798071,5.262926
2.699583,94.99519,-0.2843037,0.9798071,5.262926
2.750095,109.9987,-0.3072584,0.9798071,5.262926
2.799813,139.3701,-0.3160864,0.9799718,5.262926
2.850945,118.3905,-0.3196182,0.9798071,5.262926
2.90072,112.6688,-0.3213838,0.9798071,5.262926
2.949858,111.5245,-0.3496353,0.9798071,5.256467
2.999796,109.2358,-0.3461035,0.9799718,5.262926
3.049597,111.3974,-0.3390411,0.9798071,5.262926
3.100333,112.2874,-0.3443379,0.9798071,5.256467
3.150937,111.906,-0.3549321,0.9798071,5.262926
3.199595,101.0983,-0.4555775,0.9798071,5.256467
3.249595,98.80965,-0.6939477,0.9799718,5.262926
3.299319,98.04675,-0.8422668,0.9798071,5.256467
3.350259,96.52097,-0.941146,0.9798071,5.262926
3.401101,95.75809,-0.9323173,0.9799718,5.256467
3.449226,103.387,-0.9588032,0.9798071,5.256467
3.499183,133.5212,-1.043557,0.9798071,5.256467
3.549853,114.9575,-1.085934,0.9798071,5.262926
3.599963,113.3046,-1.11242,0.9799718,5.262926
3.650733,112.5417,-1.114185,0.9798071,5.269385
3.699506,108.4729,-1.047089,0.9798071,5.269385
3.749386,111.5245,-0.9164263,0.9798071,5.269385
3.799505,113.4317,-0.6462734,0.9798071,5.269385
3.850756,102.6241,-0.3496353,0.9798071,5.282304
3.900056,100.7169,-0.1200937,0.9798071,5.269385
3.950102,99.31824,0.04235146,0.9798071,5.275845
3.999714,98.55534,0.1606541,0.9798071,5.275845
4.049342,98.42819,0.2542365,0.9798071,5.282304
4.100589,96.13953,0.3142706,0.9799718,5.288763
4.15096,104.6585,0.3813671,0.9898543,5.295222
4.199584,128.181,0.4749495,0.9898543,5.295222
4.249586,129.4525,0.542046,0.9896896,5.301681
4.299583,112.6688,0.5897203,0.9896896,5.301681
4.350677,110.7616,0.6267998,0.9898543,5.314599
4.400019,107.2015,0.6621143,0.9900191,5.321059
4.450094,109.2358,0.6938962,0.9898543,5.327518
4.500013,111.5245,0.7168509,0.9898543,5.333977
4.549911,103.5141,0.7592278,0.9898543,5.346895
4.600424,101.4798,0.7804163,0.9898543,5.359814
4.651059,99.44539,0.7963073,0.9898543,5.372732
4.69972,98.04675,0.7998384,0.9898543,5.379191
4.749709,98.04675,0.8069021,0.9898543,5.398569
4.799232,96.90242,0.7963073,0.9898543,5.411487
4.85058,104.1499,0.7821825,0.9900191,5.424405
4.900336,130.8511,0.7539304,0.9898543,5.443783
4.950208,123.3493,0.7239133,0.9898543,5.456701
4.999793,109.2358,0.6956625,0.9898543,5.476079
5.049875,104.9128,0.6691766,0.9898543,5.488997
5.101059,103.387,0.6356283,0.9898543,5.514833
5.150553,111.0159,0.5985489,0.9898543,5.534211
5.199574,111.906,0.5473434,0.9898543,5.553588
5.250103,111.1431,0.4731832,0.9896896,5.572966
5.299067,98.1739,0.4149154,0.9896896,5.592343
5.35082,96.13953,0.35135,0.9898543,5.61818
5.400349,96.13953,0.3195668,0.9900191,5.644017
5.449064,94.10515,0.2524702,0.9896896,5.663394
5.49903,93.08795,0.1818426,0.9898543,5.682772
5.548987,99.95398,0.1376994,0.9896896,5.708608
5.600652,116.229,0.116511,0.9898543,5.734445
5.650375,118.8991,0.09885374,0.9898543,5.760282
5.700023,108.4729,0.08119649,0.9898543,5.786119
5.749856,107.71,0.06000805,0.9898543,5.811954
5.799347,103.387,0.03528843,0.9900191,5.837791
5.850447,107.71,0.008803206,0.9900191,5.863628
5.900497,109.9987,-0.02121386,0.9898543,5.883006
5.949347,108.4729,-0.05123092,0.9896896,5.908842
5.999722,96.26666,-0.08654477,0.9898543,5.92822
6.050052,94.2323,-0.104202,0.9898543,5.954056
6.100719,94.10515,-0.1183274,0.9898543,5.979893
6.150743,93.72369,-0.1430477,0.9898543,5.99927
6.199004,93.34225,-0.1942532,0.9898543,6.025107
6.249826,103.7684,-0.2419269,0.9898543,6.044485
6.298997,120.9335,-0.2542867,0.9898543,6.070321
6.350327,119.2806,-0.2578185,0.9898543,6.089699
6.400743,111.2702,-0.2542867,0.9898543,6.115536
6.449498,107.9643,-0.2525211,0.9896896,6.134913
6.499184,105.5485,-0.2542867,0.9896896,6.15429
6.549063,108.8544,-0.2489899,0.9896896,6.173668
6.600656,109.7444,-0.2507555,0.9898543,6.193046
6.650448,111.0159,-0.2560529,0.9898543,6.212423
6.700158,97.66531,-0.2613497,0.9896896,6.225342
6.750104,94.10515,-0.2595841,0.9898543,6.251178
6.799411,94.48659,-0.2560529,0.9798071,6.264096
6.850189,93.59654,-0.2578185,0.9799718,6.283474
6.900035,92.07076,-0.2542867,0.9798071,6.296392
6.949831,91.05358,-0.2896012,0.9798071,6.30931
6.999995,90.29069,-0.3231494,0.9798071,6.322229
7.049822,102.2427,-0.3231494,0.9798071,6.335147
7.100716,127.5452,-0.3160864,0.9798071,6.348066
7.150694,107.5829,-0.3054922,0.9798071,6.360984
7.199656,106.0571,-0.2966642,0.9798071,6.367443
7.249492,103.0055,-0.2860693,0.9798071,6.380362
7.299189,103.7684,-0.2807725,0.9798071,6.386821
7.350444,106.6929,-0.279007,0.9798071,6.39328
7.400819,107.8372,-0.2807725,0.9799718,6.406198
7.450059,95.63092,-0.2807725,0.9896896,6.412657
7.499943,93.72369,-0.2772413,0.9898543,6.419116
7.549694,91.81647,-0.2666471,0.9896896,6.425576
7.600904,92.07076,-0.2489899,0.9898543,6.438494
7.650732,91.81647,-0.2083786,0.9898543,6.444953
7.699485,90.29069,-0.1748304,0.9896896,6.444953
7.75022,88.25631,-0.1448133,0.9898543,6.457871
7.80017,92.96081,-0.07771614,0.9898543,6.457871
7.851208,118.772,0.008803206,0.9898543,6.464331
7.901211,121.9507,0.08649392,0.9898543,6.470789
7.949665,104.1499,0.1588879,0.9896896,6.477249
7.999221,101.8612,0.2259844,0.9896896,6.483708
8.049175,98.6825,0.2966134,0.9898543,6.483708
8.100468,105.1671,0.3690073,0.9898543,6.490167
8.150984,105.93,0.4131491,0.9896896,6.490167
8.200047,103.387,0.4572922,0.9898543,6.496626
8.249481,92.57936,0.5084977,0.9898543,6.503086
8.299263,91.43503,0.5650007,0.9896896,6.503086
8.350471,89.90925,0.5950177,0.9896896,6.509544
8.40095,88.5106,0.6338621,0.9898543,6.509544
8.44973,88.63776,0.6532856,0.9799718,6.516004
8.499732,88.7649,0.6621143,0.9799718,6.522463
8.549612,86.85767,0.6833027,0.9798071,6.522463
8.600262,87.11198,0.7115535,0.9798071,6.528922
8.650755,113.4317,0.732742,0.9798071,6.528922
8.700198,115.7204,0.746868,0.9798071,6.535381
8.750288,100.3354,0.776885,0.9799718,6.528922
8.800054,94.99519,0.7910098,0.9801366,6.535381
8.850436,92.45221,0.8016047,0.9798071,6.535381
8.900945,103.6413,0.803371,0.9799718,6.535381
8.9491,103.7684,0.803371,0.9798071,6.535381
9.000252,103.2598,0.7892449,0.9798071,6.535381
9.049981,91.05358,0.7380394,0.9799718,6.535381
9.101241,87.87486,0.6938962,0.9798071,6.541841
9.151244,86.22193,0.658583,0.9799718,6.541841
9.199776,86.34908,0.6056113,0.9799718,6.541841
9.250257,85.84048,0.5314511,0.9799718,6.541841
9.300057,86.34908,0.439635,0.9798071,6.535381
9.350683,95.75809,0.3743034,0.9798071,6.535381
9.400681,123.6036,0.3354591,0.9799718,6.528922
9.450322,102.8784,0.2895497,0.9798071,6.528922
9.499975,94.86804,0.2489391,0.9799718,6.528922
9.549409,89.5278,0.203031,0.9799718,6.522463
9.600295,89.0192,0.1571229,0.9799718,6.528922
9.65021,94.48659,0.1235734,0.9799718,6.522463
9.699932,100.7169,0.09355631,0.9798071,6.522463
9.749279,89.5278,0.0617743,0.9798071,6.516004
9.799181,86.73053,0.03705467,0.9898543,6.509544
9.85064,85.20473,-0.01061964,0.9898543,6.509544
9.900055,85.33189,-0.05299651,0.9896896,6.509544
9.949788,85.20473,-0.1183274,0.9898543,6.509544
9.999894,83.93326,-0.1871902,0.9898543,6.503086
10.04972,102.8784,-0.19955,0.9896896,6.496626
10.10108,133.0126,-0.2101442,0.9898543,6.503086
10.15095,115.7204,-0.2101442,0.9900191,6.496626
10.19918,106.4386,-0.2260358,0.9898543,6.496626
10.24968,98.6825,-0.2454587,0.9898543,6.490167
10.29966,97.66531,-0.2542867,0.9896896,6.483708
10.35041,103.387,-0.2560529,0.9896896,6.483708
10.40018,106.0571,-0.2648809,0.9898543,6.477249
10.44991,95.24948,-0.2737095,0.9898543,6.477249
10.49972,91.56216,-0.279007,0.9896896,6.470789
10.54957,89.65494,-0.2825381,0.9898543,6.470789
10.60081,88.63776,-0.2666471,0.9900191,6.464331
10.65102,88.25631,-0.2525211,0.9898543,6.464331
10.69928,87.62056,-0.2366301,0.9896896,6.457871
10.75025,98.80965,-0.1483445,0.9898543,6.451412
10.79909,107.5829,-0.02121386,0.9898543,6.451412
10.85033,116.6105,0.08472899,0.9898543,6.444953
10.90084,105.6757,0.1730139,0.9898543,6.438494
10.94932,103.1327,0.234813,0.9896896,6.438494
10.99939,100.4626,0.3178018,0.9898543,6.432034
11.04954,103.7684,0.3778359,0.9896896,6.425576
11.10044,107.0743,0.4272752,0.9898543,6.419116
11.15045,107.2015,0.4696521,0.9898543,6.419116
11.19909,94.61374,0.5385148,0.9896896,6.412657
11.24964,92.57936,0.5932515,0.9898543,6.406198
11.29971,91.56216,0.6144399,0.9896896,6.406198
11.35109,90.67213,0.644457,0.9896896,6.399739
11.40121,89.90925,0.6691766,0.9898543,6.39328
11.45001,96.13953,0.6833027,0.9898543,6.386821
11.49997,126.0195,0.7044911,0.9898543,6.386821
11.54962,112.2874,0.7451017,0.9898543,6.380362
11.60096,112.1602,0.776885,0.9900191,6.373902
11.65038,99.82683,0.7963073,0.9898543,6.367443
11.70021,97.66531,0.803371,0.9896896,6.367443
11.74921,106.0571,0.8227931,0.9898543,6.360984
11.79969,106.9472,0.8245594,0.9898543,6.360984
11.85088,105.5485,0.8245594,0.9900191,6.348066
11.90096,94.10515,0.8174957,0.9900191,6.348066
11.94996,91.43503,0.7821825,0.9896896,6.341606
11.99944,90.92643,0.7398043,0.9898543,6.341606
12.04937,89.90925,0.6921313,0.9896896,6.335147
12.10071,90.03638,0.644457,0.9898543,6.328688
12.15034,118.3905,0.6091425,0.9898543,6.322229
12.20019,124.748,0.5773605,0.9898543,6.322229
12.25025,110.6345,0.5173264,0.9898543,6.31577
12.29932,101.4798,0.4643546,0.9898543,6.30931
12.35034,96.13953,0.4007893,0.9896896,6.302852
12.40129,99.06393,0.3478189,0.9898543,6.302852
12.44964,104.7856,0.3001446,0.9898543,6.296392
12.49951,106.0571,0.2454079,0.9898543,6.289933
12.54943,94.61374,0.1959673,0.9896896,6.283474
12.60077,92.96081,0.1482943,0.9898543,6.283474
12.65065,90.79928,0.1059174,0.9898543,6.277015
12.6992,90.41783,0.05294568,0.9898543,6.277015
12.7492,89.5278,-0.06005954,0.9896896,6.264096
12.79919,100.3354,-0.1253905,0.9898543,6.264096
12.85018,131.4868,-0.183659,0.9900191,6.257637
12.90108,134.2841,-0.2119098,0.9900191,6.251178
12.94908,109.363,-0.222504,0.9898543,6.244719
13.00033,106.3114,-0.2472243,0.9898543,6.244719
13.04983,103.7684,-0.2560529,0.9898543,6.2318
13.10021,104.9128,-0.2578185,0.9898543,6.2318
13.15034,108.4729,-0.2701783,0.9898543,6.2318
13.20014,107.5829,-0.2860693,0.9898543,6.225342
13.25021,96.01237,-0.2843037,0.9898543,6.212423
13.29949,94.10515,-0.2825381,0.9898543,6.205964
13.35083,92.96081,-0.2843037,0.9900191,6.205964
13.40129,92.57936,-0.2843037,0.9898543,6.199505
13.44965,91.43503,-0.324915,0.9798071,6.199505
13.49953,98.1739,-0.3531665,0.9798071,6.193046
13.54948,114.5761,-0.3566977,0.9796425,6.186586
13.60067,130.4697,-0.347869,0.9798071,6.186586
13.65066,109.8716,-0.3355092,0.9798071,6.180127
13.69949,108.8544,-0.3284469,0.9798071,6.173668
13.7502,105.5485,-0.3178526,0.9798071,6.167209
13.80033,106.4386,-0.3001954,0.9798071,6.16075
13.85095,108.0915,-0.2896012,0.9798071,6.16075
13.90018,109.1087,-0.2684127,0.9796425,6.15429
13.94968,98.80965,-0.2154416,0.9798071,6.15429
13.99946,95.63092,-0.1130306,0.9798071,6.141372
14.04947,94.48659,-0.01768267,0.9799718,6.141372
14.10013,93.46941,0.0776653,0.9798071,6.134913
14.15118,92.96081,0.1606541,0.9796425,6.134913
14.19945,91.18073,0.1994998,0.9798071,6.128454
14.2492,93.46941,0.2507053,0.9798071,6.121995
14.29961,123.9851,0.337224,0.9798071,6.121995
14.35078,125.1294,0.3972581,0.9798071,6.115536
14.40033,109.1087,0.4449324,0.9798071,6.115536
14.44942,107.5829,0.4820119,0.9799718,6.109076
14.49989,104.277,0.5473434,0.9796425,6.096158
14.54916,104.5313,0.5932515,0.9799718,6.096158
14.60028,109.1087,0.6320972,0.9799718,6.089699
14.65028,108.3458,0.6409258,0.9798071,6.089699
14.69988,98.42819,0.6532856,0.9798071,6.08324
14.7498,95.75809,0.6797715,0.9798071,6.07678
14.79953,94.2323,0.6991937,0.9798071,6.07678
14.8509,93.59654,0.7097886,0.9798071,6.070321
14.90013,93.72369,0.7044911,0.9798071,6.070321
14.95007,91.81647,0.6921313,0.9796425,6.063862
14.99994,91.05358,0.6744741,0.9798071,6.057403
15.04987,105.93,0.6409258,0.9798071,6.057403
15.10097,126.4009,0.6091425,0.9798071,6.050944
15.15116,104.4042,0.5755942,0.9798071,6.050944
15.19989,101.0983,0.542046,0.9801366,6.044485
15.2494,96.39381,0.4996691,0.9798071,6.044485
15.29936,105.2942,0.4714183,0.9798071,6.038026
15.35067,106.3114,0.4325726,0.9799718,6.038026
15.40064,104.7856,0.4131491,0.9799718,6.031566
15.44944,94.86804,0.3813671,0.9798071,6.031566
15.49932,92.19792,0.35135,0.9796425,6.025107
15.54999,91.18073,0.3160355,0.9798071,6.018648
15.60067,90.67213,0.2860185,0.9798071,6.018648
15.65066,91.05358,0.2577677,0.9798071,6.00573
15.69944,89.90925,0.2012647,0.9796425,6.012189
15.74919,87.87486,0.1553567,0.9798071,6.00573
15.80027,89.14634,0.132402,0.9798071,5.99927
15.85142,129.3253,0.1094486,0.9799718,5.99927
15.90019,113.5589,0.0970888,0.9798071,5.992811
15.94965,104.1499,0.08649392,0.9799718,5.986352
15.99919,101.4798,0.07590036,0.9798071,5.986352
16.04919,100.5897,0.0617743,0.9798071,5.979893
16.1004,106.4386,0.04411705,0.9796425,5.979893
16.15043,105.93,0.02469421,0.9798071,5.979893
16.20019,97.02956,0.008803206,0.9799718,5.973434
16.25019,92.83366,-0.01768267,0.9799718,5.973434
16.29993,91.56216,-0.03004248,0.9798071,5.966975
16.35027,91.05358,-0.04240229,0.9798071,5.960516
16.4009,90.67213,-0.06359073,0.9798071,5.960516
16.44969,90.67213,-0.05829395,0.9896896,5.954056
16.49966,88.38345,-0.0900766,0.9898543,5.954056
16.54951,87.23911,-0.1200937,0.9896896,5.947598
16.60044,90.29069,-0.1359847,0.9900191,5.947598
16.65114,123.2222,-0.1518763,0.9898543,5.947598
16.69989,113.0503,-0.1554075,0.9898543,5.941138
16.74996,104.7856,-0.1536419,0.9896896,5.941138
16.79954,102.3698,-0.1571731,0.9898543,5.934679
16.85067,101.0983,-0.1518763,0.9898543,5.934679
16.90066,106.0571,-0.1554075,0.9898543,5.92822
16.94989,106.9472,-0.1660017,0.9898543,5.92822
16.99914,95.37663,-0.1712985,0.9898543,5.921761
17.05014,92.19792,-0.1748304,0.9898543,5.921761
17.10139,91.81647,-0.1818927,0.9898543,5.915301
17.15052,90.16354,-0.1818927,0.9798071,5.915301
17.20018,89.5278,-0.1801271,0.9798071,5.908842
17.24988,89.0192,-0.1554075,0.9799718,5.908842
17.29975,87.87486,-0.1342191,0.9799718,5.908842
17.35039,84.82329,-0.1094994,0.9798071,5.908842
17.40039,93.34225,-0.06359073,0.9798071,5.902383
17.45014,126.6552,0.01763183,0.9798071,5.902383
17.4994,127.1638,0.09355631,0.9798071,5.895924
17.54987,104.0227,0.1624191,0.9798071,5.895924
17.60101,100.7169,0.2171557,0.9799718,5.889464
17.65084,97.9196,0.2736587,0.9798071,5.889464
17.69936,101.8612,0.3389902,0.9798071,5.883006
17.74987,104.5313,0.3813671,0.9798071,5.883006
17.7995,104.1499,0.4255089,0.9799718,5.876546
17.85127,92.7065,0.4590585,0.9798071,5.883006
17.90117,90.67213,0.5102627,0.9798071,5.876546
17.95026,90.29069,0.5685319,0.9798071,5.876546
17.99989,90.29069,0.6109087,0.9799718,5.870087
18.04985,87.87486,0.628566,0.9798071,5.870087
18.10087,87.87486,0.6338621,0.9798071,5.863628
18.15021,87.23911,0.644457,0.9798071,5.863628
18.1993,90.29069,0.6568168,0.9799718,5.863628
18.24986,116.1019,0.6709428,0.9798071,5.863628
18.29951,122.8407,0.6833027,0.9798071,5.857169
18.35038,103.1327,0.6938962,0.9798071,5.857169
18.40085,96.77527,0.7009599,0.9798071,5.857169
18.44925,92.57936,0.6815364,0.9798071,5.85071
18.49998,100.7169,0.6638792,0.9798071,5.85071
18.54968,103.1327,0.6391596,0.9798071,5.844251
18.60086,102.1155,0.6144399,0.9799718,5.844251
18.65086,90.67213,0.5755942,0.9798071,5.837791
18.69938,87.87486,0.5208576,0.9798071,5.837791
18.74922,86.73053,0.4890742,0.9798071,5.837791
18.79926,86.73053,0.4625897,0.9798071,5.837791
18.85025,87.49342,0.4184465,0.9798071,5.831332
18.90138,86.34908,0.3654761,0.9799718,5.831332
18.94987,93.72369,0.3266304,0.9798071,5.831332
18.99964,110.1259,0.3072069,0.9798071,5.824873
19.05017,110.6345,0.2877847,0.9798071,5.824873
19.10135,101.4798,0.2665963,0.9798071,5.824873
19.15083,96.01237,0.2401104,0.9798071,5.818414
19.19938,91.68932,0.218922,0.9798071,5.818414
19.25037,98.80965,0.2047959,0.9798071,5.818414
19.29988,102.2427,0.1853737,0.9798071,5.811954
19.3503,102.2427,0.1694827,0.9798071,5.811954
19.40089,90.29069,0.1553567,0.9798071,5.811954
19.4496,88.00201,0.1429969,0.9798071,5.805496
19.49997,87.62056,0.132402,0.9798071,5.805496
19.54963,86.73053,0.1218084,0.9796425,5.805496
19.60063,86.73053,0.1147447,0.9798071,5.805496
19.65063,86.34908,0.08472899,0.9798071,5.799037
19.70037,85.58618,0.04235146,0.9799718,5.799037
19.7499,100.7169,0.02646045,0.9798071,5.799037
19.79922,128.0538,0.01409999,0.9799718,5.792577
19.85037,105.5485,0.01409999,0.9798071,5.792577
19.9004,101.3526,0.008803206,0.9796425,5.792577
19.9493,98.80965,0.003505771,0.9798071,5.792577
19.99997,97.66531,0.003505771,0.9798071,5.786119
20.0493,103.1327,-0.005322854,0.9798071,5.786119
20.10081,104.5313,-0.01768267,0.9798071,5.786119
20.15135,92.83366,-0.02827688,0.9798071,5.779659
20.19993,90.29069,-0.03533926,0.9798071,5.779659
20.25,89.90925,-0.03887111,0.9799718,5.779659
20.3,89.14634,-0.0565277,0.9798071,5.779659
20.35109,88.7649,-0.05829395,0.9798071,5.7732
20.40066,87.87486,-0.08124798,0.9798071,5.7732
20.44929,86.73053,-0.111265,0.9799718,5.766741
20.49924,90.79928,-0.1289216,0.9798071,5.7732
20.55037,128.6896,-0.1359847,0.9798071,5.766741
20.60085,129.9611,-0.1377503,0.9798071,5.766741
20.65102,111.0159,-0.1306879,0.9798071,5.766741
20.69963,103.1327,-0.1306879,0.9798071,5.760282
20.74974,99.57254,-0.1236249,0.9798071,5.760282
20.79929,105.2942,-0.1218593,0.9798071,5.760282
20.85124,107.0743,-0.1218593,0.9798071,5.753822
20.90027,104.7856,-0.127156,0.9798071,5.753822
20.94944,94.48659,-0.1289216,0.9796425,5.753822
20.99928,92.7065,-0.1094994,0.9798071,5.753822
21.05013,91.81647,-0.09360779,0.9799718,5.753822
21.10112,90.67213,-0.07065376,0.9798071,5.753822
21.15034,89.5278,-0.02651129,0.9898543,5.747364
21.19969,89.2735,0.005271365,0.9900191,5.747364
21.24965,87.49342,0.02646045,0.9898543,5.747364
21.29949,91.94361,0.08649392,0.9896896,5.740904
21.35102,124.748,0.1571229,0.9898543,5.740904
21.40124,122.5864,0.2224532,0.9896896,5.740904
21.44963,103.0055,0.2771899,0.9898543,5.740904
21.49966,101.4798,0.337224,0.9898543,5.740904
21.54936,99.95398,0.383132,0.9898543,5.740904
21.60024,101.4798,0.4272752,0.9898543,5.734445
21.65095,106.0571,0.4643546,0.9896896,5.734445
21.69941,97.53816,0.4996691,0.9898543,5.734445
21.74934,94.48659,0.5526395,0.9896896,5.734445
21.79969,91.43503,0.5985489,0.9898543,5.727985
21.85125,91.43503,0.6303309,0.9898543,5.727985
21.90111,91.43503,0.6479882,0.9898543,5.727985
21.95042,90.29069,0.6568168,0.9896896,5.727985
22.00034,89.14634,0.6674117,0.9896896,5.727985
22.05025,87.11198,0.6621143,0.9898543,5.721527
22.10123,106.1843,0.6621143,0.9898543,5.721527
22.15109,127.9267,0.658583,0.9898543,5.721527
22.19961,113.4317,0.6568168,0.9898543,5.721527
22.24961,100.7169,0.6356283,0.9898543,5.715067
22.2994,96.13953,0.6109087,0.9896896,5.715067
22.35036,98.1739,0.5861891,0.9896896,5.715067
22.40133,104.9128,0.5508746,0.9898543,5.715067
22.44923,104.5313,0.5120289,0.9898543,5.708608
22.49924,103.7684,0.4820119,0.9898543,5.708608
22.54933,91.56216,0.4590585,0.9898543,5.715067
22.60108,89.5278,0.4290414,0.9898543,5.708608
22.6511,89.40065,0.407853,0.9898543,5.708608
22.69939,88.38345,0.3954919,0.9896896,5.702149
22.75027,87.87486,0.3654761,0.9896896,5.702149
22.79983,87.11198,0.3125044,0.9799718,5.702149
22.85041,94.48659,0.2842535,0.9798071,5.702149
22.90137,121.8235,0.2648301,0.9799718,5.69569
22.95008,110.5073,0.2489391,0.9798071,5.702149
22.99995,104.6585,0.2401104,0.9799718,5.69569
23.04986,99.19109,0.2206882,0.9798071,5.702149
23.1009,95.63092,0.2100934,0.9798071,5.69569
23.1509,103.387,0.1906712,0.9798071,5.69569
23.19934,105.2942,0.1677165,0.9798071,5.68923
23.25048,102.497,0.1394657,0.9798071,5.68923
23.29933,92.19792,0.1094486,0.9798071,5.68923
23.3509,89.40065,0.07236787,0.9798071,5.68923
23.40055,89.40065,0.01939742,0.9798071,5.68923
23.45008,88.7649,-0.04593348,0.9896896,5.682772
23.50008,88.38345,-0.08654477,0.9898543,5.68923
23.5499,86.85767,-0.176596,0.9896896,5.682772
23.60111,85.96764,-0.2401613,0.9896896,5.682772
23.6509,96.13953,-0.2631153,0.9896896,5.682772
23.69987,125.8923,-0.2737095,0.9896896,5.682772
23.7499,106.4386,-0.2666471,0.9896896,5.676312
23.7994,102.3698,-0.2701783,0.9898543,5.676312
23.85064,100.2083,-0.2631153,0.9896896,5.676312
23.90065,101.4798,-0.2542867,0.9896896,5.676312
23.95014,104.5313,-0.2525211,0.9896896,5.669853
24.00011,105.5485,-0.2525211,0.9900191,5.669853
24.04984,93.72369,-0.2525211,0.9898543,5.669853
24.10036,92.45221,-0.2507555,0.9898543,5.669853
24.15138,89.90925,-0.2436925,0.9796425,5.669853
24.19931,89.90925,-0.2366301,0.9798071,5.663394
24.24967,89.14634,-0.2172072,0.9798071,5.669853
24.29964,87.87486,-0.213676,0.9798071,5.663394
24.35084,86.47623,-0.222504,0.9798071,5.663394
24.40085,103.0055,-0.1924876,0.9798071,5.663394
24.44985,126.528,-0.1342191,0.9799718,5.663394
24.49985,127.5452,-0.05476211,0.9798071,5.656935
24.54985,104.9128,0.03352283,0.9798071,5.663394
24.60035,101.6069,0.1076824,0.9798071,5.656935
24.65031,99.06393,0.1783114,0.9798071,5.656935
24.70015,103.1327,0.2295156,0.9798071,5.656935
24.75014,105.5485,0.2824873,0.9798071,5.656935
24.80026,104.9128,0.3389902,0.9798071,5.656935
24.85132,92.7065,0.3848983,0.9796425,5.656935
24.9011,91.18073,0.4308064,0.9798071,5.650476
24.94984,89.90925,0.4714183,0.9798071,5.650476
24.99997,89.5278,0.5226238,0.9798071,5.650476
25.05,89.0192,0.5738293,0.9798071,5.650476
25.1011,87.74771,0.587954,0.9796425,5.650476
25.15075,86.22193,0.6020801,0.9799718,5.650476
25.20016,89.65494,0.6320972,0.9798071,5.644017
25.24976,119.9163,0.6391596,0.9798071,5.644017
25.29934,111.906,0.644457,0.9798071,5.644017
25.35035,101.3526,0.6479882,0.9798071,5.644017
25.40148,96.52097,0.6426907,0.9798071,5.644017
25.44942,95.37663,0.6250335,0.9798071,5.637558
25.50032,105.0399,0.5950177,0.9796425,5.644017
25.55022,104.277,0.5561721,0.9798071,5.637558
25.6013,97.15671,0.5014353,0.9798071,5.637558
25.65058,91.18073,0.4714183,0.9798071,5.637558
25.70049,89.40065,0.4325726,0.9798071,5.637558
25.75036,88.25631,0.4007893,0.9798071,5.637558
25.79985,87.87486,0.3760697,0.9898543,5.637558
25.85032,87.62056,0.3160355,0.9898543,5.637558
25.90122,85.96764,0.2612989,0.9898543,5.637558
25.94977,92.96081,0.2136246,0.9896896,5.631098
26,118.2634,0.1906712,0.9900191,5.631098
26.04934,112.6688,0.1659502,0.9898543,5.631098
26.10088,101.7341,0.1500592,0.9898543,5.631098
26.15096,96.64812,0.1341682,0.9898543,5.62464
26.19975,94.61374,0.1147447,0.9898543,5.62464
26.24949,103.387,0.08296274,0.9896896,5.62464
26.30029,104.1499,0.03175724,0.9898543,5.62464
26.35112,96.13953,0.001740176,0.9896896,5.62464
26.40096,90.41783,-0.01768267,0.9898543,5.62464
26.44936,88.7649,-0.02827688,0.9898543,5.62464
26.50036,87.62056,-0.03710551,0.9898543,5.61818
26.55047,87.87486,-0.05829395,0.9896896,5.61818
26.60146,87.62056,-0.06712192,0.9896896,5.62464
26.65092,86.85767,-0.1236249,0.9898543,5.61818
26.69931,85.58618,-0.1712985,0.9898543,5.61818
26.75045,103.8956,-0.1748304,0.9896896,5.61818
26.80031,121.9507,-0.1748304,0.9896896,5.61818
26.85105,104.0227,-0.1695329,0.9896896,5.611721
26.90097,101.3526,-0.1695329,0.9898543,5.611721
26.9496,99.57254,-0.1660017,0.9896896,5.611721
26.99933,99.95398,-0.1624705,0.9898543,5.611721
27.04935,106.3114,-0.1571731,0.9896896,5.611721
27.10033,105.1671,-0.1554075,0.9896896,5.611721
27.15133,94.99519,-0.1501101,0.9898543,5.611721
27.19995,91.81647,-0.1430477,0.9898543,5.605262
27.24944,89.78209,-0.1412821,0.9898543,5.605262
27.29988,89.90925,-0.1660017,0.9896896,5.605262
27.3501,89.5278,-0.183659,0.9898543,5.611721
27.40012,88.00201,-0.2719439,0.9896896,5.605262
27.4504,88.89205,-0.3531665,0.9898543,5.605262
27.50083,118.5177,-0.381418,0.9898543,5.598803
27.54941,130.3425,-0.3549321,0.9896896,5.605262
27.59961,109.9987,-0.2754751,0.9898543,5.598803
27.64988,103.0055,-0.2242703,0.9898543,5.598803
27.69961,100.9712,-0.2383957,0.9896896,5.592343
27.75097,99.44539,-0.3708237,0.9898543,5.592343
27.79941,104.1499,-0.4326234,0.9898543,5.592343
27.8494,105.5485,-0.4644061,0.9898543,5.585885
27.9002,94.2323,-0.4396858,0.9896896,5.585885
27.94987,91.05358,-0.381418,0.9898543,5.579425
28.00088,90.79928,-0.2701783,0.9898543,5.585885
28.05025,90.03638,-0.1218593,0.9898543,5.592343
28.10016,88.63776,-0.05829395,0.9896896,5.598803
28.15025,87.23911,-0.04416789,0.9799718,5.592343
28.20012,100.2083,-0.01061964,0.9798071,5.585885
28.25143,127.1638,0.09355631,0.9798071,5.585885
28.29931,121.0607,0.2100934,0.9798071,5.585885
28.34961,102.8784,0.4007893,0.9798071,5.592343
28.39959,101.0983,0.5402797,0.9798071,5.592343
28.44974,98.42819,0.587954,0.9798071,5.598803
28.50128,107.4557,0.6038451,0.9798071,5.592343
28.54938,107.2015,0.6056113,0.9796425,5.585885
28.59939,105.2942,0.628566,0.9798071,5.585885
28.65007,93.978,0.6550506,0.9798071,5.585885
28.69953,92.96081,0.6991937,0.9798071,5.579425
28.75154,91.43503,0.7362731,0.9798071,5.579425
28.8004,91.68932,0.7398043,0.9798071,5.579425
28.85025,93.72369,0.7362731,0.9798071,5.579425
28.89933,114.1946,0.7398043,0.9798071,5.579425
28.95044,123.3493,0.7592278,0.9798071,5.579425
29.00146,110.8888,0.77865,0.9798071,5.579425
29.05024,101.0983,0.7751188,0.9798071,5.572966
29.09968,98.1739,0.7503992,0.9798071,5.572966
29.14993,107.0743,0.7221484,0.9798071,5.572966
29.20019,108.0915,0.7203821,0.9798071,5.572966
29.25108,106.82,0.6938962,0.9798071,5.572966
29.30055,96.26666,0.6656454,0.9798071,5.572966
29.35053,94.61374,0.644457,0.9798071,5.572966
29.40043,92.96081,0.6197374,0.9798071,5.566507
29.45039,92.96081,0.5826566,0.9796425,5.566507
29.50141,99.19109,0.5561721,0.9798071,5.572966
29.54998,109.6173,0.542046,0.9796425,5.566507
29.59986,126.0195,0.5332174,0.9798071,5.566507
29.64957,107.0743,0.5349836,0.9799718,5.566507
29.70016,104.4042,0.5296862,0.9798071,5.566507
29.75124,101.0983,0.5243887,0.9796425,5.566507
29.79972,107.3286,0.5120289,0.9798071,5.566507
29.84971,108.3458,0.4943717,0.9798071,5.566507
29.90043,109.2358,0.4979029,0.9798071,5.566507
29.95006,99.06393,0.4996691,0.9796425,5.560048
30.0012,95.75809,0.4873093,0.9798071,5.560048
30.04986,94.99519,0.4696521,0.9798071,5.560048
30.09969,94.2323,0.4131491,0.9796425,5.566507
30.15004,93.978,0.383132,0.9798071,5.560048
30.19971,107.5829,0.3637099,0.9799718,5.560048
30.25157,134.0298,0.337224,0.9798071,5.560048
30.30051,129.1982,0.3160355,0.9798071,5.553588
30.34936,112.5417,0.3142706,0.9798071,5.553588
30.40057,111.1431,0.3089732,0.9798071,5.553588
30.44999,107.0743,0.3019095,0.9798071,5.553588
30.50079,109.1087,0.2913159,0.9798071,5.553588
30.55053,110.253,0.2842535,0.9798071,5.553588
30.60047,102.7513,0.2824873,0.9798071,5.553588
30.64959,98.42819,0.2771899,0.9798071,5.553588
30.7003,96.26666,0.2665963,0.9798071,5.553588
30.75119,95.37663,0.2542365,0.9796425,5.547129
30.79942,94.99519,0.2489391,0.9798071,5.547129
30.85006,94.2323,0.2312818,0.9798071,5.547129
30.89966,92.96081,0.1765451,0.9796425,5.547129
30.95029,96.52097,0.1394657,0.9796425,5.547129
31.00114,126.6552,0.1112136,0.9798071,5.553588
31.05041,117.119,0.0970888,0.9799718,5.553588
31.10031,112.2874,0.0970888,0.9798071,5.547129
31.14976,112.0331,0.09179136,0.9798071,5.553588
31.2006,108.4729,0.09002512,0.9798071,5.547129
31.25107,108.8544,0.09002512,0.9796425,5.553588
31.29969,109.9987,0.08826017,0.9798071,5.553588
31.34956,107.8372,0.06354055,0.9798071,5.553588
31.39951,99.19109,-0.003556607,0.9799718,5.553588
31.45006,97.79247,-0.04240229,0.9798071,5.560048
31.5011,97.28386,-0.07065376,0.9798071,5.553588
31.55006,95.50377,-0.08654477,0.9798071,5.553588
31.59951,94.86804,-0.07948238,0.9799718,5.553588
31.65023,94.10515,-0.06712192,0.9798071,5.560048
31.69983,92.19792,-0.0565277,0.9796425,5.553588
31.7505,90.03638,-0.05829395,0.9798071,5.553588
31.8001,92.19792,-0.06359073,0.9798071,5.553588
31.8501,113.686,-0.05476211,0.9798071,5.553588
31.89959,138.0986,-0.03357367,0.9798071,5.553588
31.94959,112.6688,-0.007088448,0.9798071,5.553588
32.00091,112.2874,-0.04946532,0.9798071,5.553588
32.05061,110.253,-0.1377503,0.9798071,5.553588
32.09981,110.3802,-0.2119098,0.9798071,5.553588
32.14978,110.6345,-0.2436925,0.9798071,5.553588
32.19982,111.1431,-0.2984298,0.9798071,5.553588
32.2511,100.5897,-0.2807725,0.9798071,5.553588
32.30035,99.19109,-0.1818927,0.9796425,5.553588
32.35008,97.66531,-0.06712192,0.9796425,5.553588
32.39975,97.28386,0.06000805,0.9798071,5.553588
32.44962,96.01237,0.1694827,0.9798071,5.553588
32.5013,93.72369,0.2577677,0.9796425,5.553588
32.55004,92.7065,0.3107381,0.9796425,5.553588
32.59957,91.30788,0.3566475,0.9799718,5.560048
32.65059,89.90925,0.3866645,0.9796425,5.553588
32.70042,100.4626,0.439635,0.9798071,5.553588
32.75105,128.9439,0.4943717,0.9798071,5.560048
32.79955,117.2462,0.5455772,0.9798071,5.560048
32.85055,109.2358,0.5844229,0.9798071,5.560048
32.89956,106.9472,0.6267998,0.9798071,5.560048
32.95051,105.4214,0.6515194,0.9798071,5.560048
33.00042,109.1087,0.6780052,0.9798071,5.560048
33.0498,109.6173,0.6868339,0.9798071,5.560048
33.09981,98.9368,0.6921313,0.9798071,5.560048
33.14952,96.39381,0.7009599,0.9896896,5.560048
33.19981,95.37663,0.7203821,0.9898543,5.560048
33.25064,94.61374,0.7203821,0.9896896,5.560048
33.30045,93.59654,0.7133197,0.9898543,5.560048
33.35033,93.46941,0.6938962,0.9898543,5.560048
33.40017,90.79928,0.6727078,0.9900191,5.560048
33.45034,90.03638,0.628566,0.9898543,5.560048
33.5004,98.42819,0.5826566,0.9898543,5.560048
33.55043,122.0779,0.5385148,0.9896896,5.560048
33.59976,122.7136,0.5155601,0.9900191,5.560048
33.65039,101.9884,0.4908405,0.9898543,5.560048
33.69978,98.30104,0.4714183,0.9898543,5.566507
33.75072,102.3698,0.4502299,0.9898543,5.566507
33.79992,105.5485,0.4272752,0.9898543,5.566507
33.84957,107.2015,0.4043205,0.9898543,5.572966
33.90029,107.2015,0.3813671,0.9900191,5.572966
33.95009,92.96081,0.3637099,0.9898543,5.572966
34.00055,90.67213,0.3407552,0.9898543,5.572966
34.05017,90.03638,0.3019095,0.9896896,5.579425
34.10014,90.54498,0.2701275,0.9898543,5.585885
34.1498,90.54498,0.2277506,0.9898543,5.585885
34.19995,88.38345,0.1429969,0.9896896,5.585885
34.251,95.88522,0.0123344,0.9896896,5.592343
34.29993,131.614,-0.05829395,0.9898543,5.592343
34.35021,125.2566,-0.1024364,0.9896896,5.605262
34.40039,109.2358,-0.1218593,0.9898543,5.605262
34.45029,105.4214,-0.1430477,0.9896896,5.611721
34.50154,103.2598,-0.1518763,0.9898543,5.61818
34.55029,103.6413,-0.1589387,0.9896896,5.62464
34.59941,106.82,-0.1695329,0.9898543,5.631098
34.65054,107.8372,-0.1818927,0.9898543,5.631098
34.70009,97.15671,-0.1871902,0.9898543,5.637558
34.75091,93.46941,-0.1854246,0.9898543,5.644017
34.7998,92.07076,-0.1854246,0.9900191,5.650476
34.84972,91.30788,-0.1854246,0.9896896,5.656935
34.89989,90.54498,-0.1871902,0.9898543,5.656935
34.95029,89.0192,-0.1854246,0.9896896,5.669853
35.00072,86.73053,-0.2083786,0.9898543,5.669853
35.04958,89.65494,-0.2330982,0.9898543,5.676312
35.09958,127.2909,-0.2383957,0.9896896,5.682772
35.15056,129.3253,-0.2278014,0.9896896,5.68923
35.20008,109.4901,-0.2119098,0.9898543,5.69569
35.25133,105.4214,-0.2013156,0.9896896,5.702149
35.30062,104.0227,-0.1854246,0.9898543,5.708608
35.34966,101.6069,-0.1412821,0.9898543,5.715067
35.40058,105.5485,-0.07241935,0.9898543,5.721527
35.44962,105.93,0.003505771,0.9896896,5.721527
35.5015,94.48659,0.08472899,0.9898543,5.734445
35.5504,91.94361,0.1853737,0.9896896,5.734445
35.60026,91.05358,0.2718937,0.9898543,5.740904
35.65041,91.43503,0.3107381,0.9898543,5.747364
35.70021,91.05358,0.3601787,0.9898543,5.753822
35.75087,88.25631,0.3884295,0.9898543,5.753822
35.80028,86.73053,0.4096179,0.9798071,5.760282
35.85038,93.46941,0.4431662,0.9798071,5.766741
35.9002,130.3425,0.4802469,0.9798071,5.7732
35.95054,123.095,0.5243887,0.9798071,5.7732
36.00137,106.0571,0.5526395,0.9796425,5.779659
36.0499,101.4798,0.5844229,0.9798071,5.786119
36.0998,98.55534,0.6179711,0.9798071,5.786119
36.14993,103.6413,0.6373946,0.9798071,5.792577
36.19981,105.6757,0.6656454,0.9799718,5.799037
36.25063,105.6757,0.6797715,0.9798071,5.799037
36.30038,92.96081,0.6974275,0.9798071,5.805496
36.3507,90.79928,0.706256,0.9798071,5.811954
36.39988,89.0192,0.7186159,0.9798071,5.818414
36.44953,88.63776,0.7186159,0.9798071,5.818414
36.50053,88.7649,0.7097886,0.9796425,5.818414
36.55021,87.49342,0.6833027,0.9798071,5.824873
36.5995,87.11198,0.6674117,0.9799718,5.824873
36.64979,99.44539,0.6232685,0.9798071,5.831332
36.69965,127.1638,0.5738293,0.9798071,5.837791
36.75079,101.6069,0.5279199,0.9798071,5.837791
36.79961,95.88522,0.4873093,0.9799718,5.837791
36.84954,93.59654,0.4502299,0.9798071,5.844251
36.89965,101.0983,0.407853,0.9796425,5.844251
36.9497,102.8784,0.3584124,0.9798071,5.844251
37.00085,104.1499,0.3125044,0.9799718,5.85071
37.05067,90.67213,0.2683612,0.9798071,5.857169
37.10032,88.38345,0.2365792,0.9798071,5.857169
37.15032,87.87486,0.1853737,0.9796425,5.857169
37.2003,87.62056,0.1571229,0.9798071,5.857169
37.25065,87.11198,0.10062,0.9798071,5.863628
37.3004,86.34908,0.01409999,0.9798071,5.857169
37.34983,94.2323,-0.0406367,0.9798071,5.863628
37.39981,126.2737,-0.0918422,0.9798071,5.863628
37.44965,110.7616,-0.1077332,0.9798071,5.863628
37.50128,105.2942,-0.1236249,0.9798071,5.870087
37.54955,101.4798,-0.1430477,0.9798071,5.863628
37.60054,99.06393,-0.1448133,0.9798071,5.870087
37.65065,104.0227,-0.1501101,0.9796425,5.870087
37.7004,106.82,-0.1571731,0.9798071,5.870087
37.75072,96.01237,-0.1607043,0.9796425,5.870087
37.8004,93.72369,-0.1624705,0.9798071,5.876546
37.84988,91.05358,-0.1624705,0.9798071,5.870087
37.90028,89.40065,-0.1748304,0.9798071,5.870087
37.94991,89.5278,-0.1642361,0.9799718,5.876546
38.00091,89.5278,-0.1907214,0.9798071,5.870087
38.05002,87.87486,-0.2260358,0.9799718,5.870087
38.09974,102.7513,-0.2401613,0.9798071,5.876546
38.15052,134.9198,-0.2383957,0.9796425,5.870087
38.19959,116.1019,-0.2260358,0.9798071,5.876546
38.2514,104.9128,-0.2189728,0.9799718,5.870087
38.3004,103.387,-0.2119098,0.9798071,5.870087
38.35027,101.8612,-0.2048474,0.9798071,5.870087
38.40052,105.93,-0.2013156,0.9798071,5.870087
38.45004,108.7272,-0.19955,0.9798071,5.876546
38.50114,95.37663,-0.19955,0.9798071,5.876546
38.54977,94.2323,-0.1960188,0.9799718,5.870087
38.60027,92.7065,-0.1889558,0.9799718,5.870087
38.65064,91.05358,-0.1907214,0.9796425,5.870087
38.70055,90.67213,-0.1695329,0.9798071,5.870087
38.75152,89.65494,-0.1818927,0.9798071,5.870087
38.79977,88.25631,-0.1871902,0.9896896,5.870087
38.85028,111.3974,-0.1430477,0.9898543,5.870087
38.89953,135.1741,-0.09713899,0.9896896,5.870087
38.94954,115.0847,-0.01061964,0.9896896,5.870087
39.00072,106.4386,0.06883668,0.9898543,5.870087
39.0505,103.0055,0.1588879,0.9898543,5.863628
39.1,99.95398,0.2418767,0.9898543,5.863628
39.14999,105.6757,0.3001446,0.9898543,5.863628
39.19974,106.82,0.353115,0.9900191,5.863628
39.25088,95.75809,0.3937269,0.9896896,5.863628
39.2999,93.34225,0.4343376,0.9898543,5.857169
39.35006,91.81647,0.4802469,0.9896896,5.857169
39.40002,90.67213,0.5190913,0.9896896,5.857169
39.44978,90.29069,0.5508746,0.9898543,5.857169
39.50111,90.03638,0.5667656,0.9896896,5.85071
39.54979,88.5106,0.5808917,0.9896896,5.85071
39.5998,88.63776,0.6056113,0.9898543,5.85071
39.64981,96.52097,0.628566,0.9898543,5.85071
39.69974,125.8923,0.6409258,0.9896896,5.844251
39.75107,103.7684,0.660348,0.9898543,5.844251
39.79955,100.3354,0.6727078,0.9900191,5.844251
39.85054,97.53816,0.6638792,0.9896896,5.837791
39.90025,105.2942,0.6532856,0.9896896,5.837791
39.95003,106.82,0.6356283,0.9896896,5.837791
40.00105,106.3114,0.6091425,0.9896896,5.831332
40.04962,93.85085,0.5773605,0.9898543,5.837791
40.10026,92.57936,0.5367485,0.9896896,5.831332
40.14976,91.18073,0.4979029,0.9799718,5.831332
40.19976,90.29069,0.4749495,0.9799718,5.831332
40.25109,89.5278,0.4202128,0.9798071,5.824873
40.29951,89.2735,0.3672411,0.9798071,5.824873
40.34958,96.26666,0.3301616,0.9798071,5.824873
40.39951,120.4249,0.2913159,0.9799718,5.818414
40.4501,110.8888,0.2630651,0.9798071,5.818414
40.50163,104.277,0.2383442,0.9798071,5.811954
40.55026,98.9368,0.2153908,0.9796425,5.811954
40.60027,96.77527,0.1889049,0.9798071,5.811954
40.65025,106.3114,0.1535904,0.9796425,5.805496
40.70055,106.0571,0.1253396,0.9798071,5.805496
40.75151,105.5485,0.09355631,0.9798071,5.799037
40.79976,92.83366,0.06354055,0.9798071,5.805496
40.85063,89.90925,0.03705467,0.9798071,5.799037
40.90051,89.40065,0.003505771,0.9798071,5.799037
40.9505,89.40065,-0.003556607,0.9798071,5.799037
41.0005,89.0192,-0.05299651,0.9798071,5.792577
41.05034,90.54498,-0.104202,0.9798071,5.792577
41.0996,114.5761,-0.1147962,0.9798071,5.786119
41.15039,136.0642,-0.1236249,0.9796425,5.786119
41.19997,119.2806,-0.1236249,0.9799718,5.786119
41.25084,105.8028,-0.1236249,0.9798071,5.779659
41.29974,104.277,-0.1218593,0.9798071,5.779659
41.34977,102.3698,-0.1183274,0.9799718,5.779659
41.39982,106.0571,-0.1165618,0.9798071,5.7732
41.44996,107.8372,-0.1200937,0.9799718,5.7732
41.50055,97.41101,-0.1218593,0.9798071,5.766741
41.55017,93.34225,-0.1218593,0.9798071,5.766741
41.59992,92.96081,-0.1218593,0.9798071,5.766741
41.65004,91.81647,-0.1218593,0.9799718,5.760282
41.70055,91.05358,-0.1218593,0.9798071,5.760282
41.75055,90.29069,-0.1430477,0.9798071,5.760282
41.80038,94.99519,-0.1624705,0.9799718,5.760282
41.8498,131.7411,-0.1554075,0.9798071,5.753822
41.90046,132.6312,-0.1465789,0.9798071,5.753822
41.94962,110.7616,-0.1324535,0.9799718,5.753822
42.00092,106.4386,-0.1342191,0.9798071,5.747364
42.05054,103.6413,-0.1377503,0.9799718,5.747364
42.09992,104.7856,-0.1306879,0.9799718,5.747364
42.14972,109.6173,-0.1342191,0.9798071,5.740904
42.19979,108.7272,-0.1412821,0.9799718,5.740904
42.25136,96.90242,-0.1430477,0.9798071,5.734445
42.30051,94.86804,-0.1359847,0.9798071,5.734445
42.35072,94.99519,-0.1377503,0.9798071,5.734445
42.40079,93.978,-0.1289216,0.9799718,5.734445
42.45004,92.96081,-0.1395159,0.9896896,5.727985
42.50097,91.43503,-0.1695329,0.9896896,5.721527
42.54988,97.28386,-0.1730648,0.9896896,5.727985
42.59979,113.0503,-0.1712985,0.9898543,5.721527
42.64991,116.229,-0.1607043,0.9898543,5.721527
42.69976,109.4901,-0.1536419,0.9898543,5.721527
42.75119,105.6757,-0.1518763,0.9896896,5.715067
42.80034,103.7684,-0.1342191,0.9898543,5.715067
42.85035,109.4901,-0.1200937,0.9898543,5.708608
42.89969,109.9987,-0.06005954,0.9898543,5.715067
42.95028,109.6173,0.04235146,0.9898543,5.708608
43.00054,96.90242,0.1271059,0.9896896,5.708608
43.05036,95.37663,0.218922,0.9898543,5.708608
43.0997,94.2323,0.3036757,0.9898543,5.702149
43.15012,92.96081,0.3566475,0.9898543,5.702149
43.20079,92.83366,0.4060867,0.9898543,5.69569
43.25068,104.1499,0.4590585,0.9898543,5.69569
43.29995,126.4009,0.5190913,0.9898543,5.69569
43.35025,112.4145,0.5702968,0.9896896,5.68923
43.39971,107.71,0.628566,0.9898543,5.68923
43.44979,103.6413,0.660348,0.9898543,5.68923
43.50159,102.7513,0.6780052,0.9898543,5.68923
43.55016,109.7444,0.6974275,0.9900191,5.682772
43.60035,109.8716,0.7168509,0.9898543,5.682772
43.65003,108.9815,0.732742,0.9898543,5.682772
43.69958,96.90242,0.746868,0.9898543,5.676312
43.75152,94.99519,0.7645252,0.9898543,5.676312
43.80003,93.72369,0.7715876,0.9900191,5.676312
43.85004,93.46941,0.762759,0.9898543,5.676312
43.90071,93.34225,0.7433368,0.9898543,5.669853
43.94997,99.06393,0.7239133,0.9896896,5.669853
44.00116,124.4937,0.7027249,0.9898543,5.669853
44.04978,107.2015,0.6727078,0.9898543,5.663394
44.09978,103.6413,0.6426907,0.9898543,5.663394
44.15034,98.1739,0.6091425,0.9898543,5.656935
44.20016,104.7856,0.5738293,0.9898543,5.663394
44.25113,107.9643,0.5332174,0.9898543,5.656935
44.30026,107.4557,0.4996691,0.9898543,5.656935
44.34966,96.13953,0.4820119,0.9898543,5.656935
44.39965,93.85085,0.4661209,0.9898543,5.656935
44.45051,92.7065,0.4378687,0.9898543,5.650476
44.50106,92.19792,0.4007893,0.9898543,5.650476
44.55011,91.81647,0.3389902,0.9898543,5.650476
44.60011,91.43503,0.2895497,0.9898543,5.650476
44.64982,99.31824,0.2595326,0.9898543,5.650476
44.69978,118.6448,0.2277506,0.9898543,5.644017
44.7509,107.9643,0.2047959,0.9898543,5.644017
44.80077,106.0571,0.1800763,0.9898543,5.644017
44.84965,103.0055,0.1571229,0.9898543,5.637558
44.90065,106.6929,0.1394657,0.9898543,5.637558
44.95032,109.6173,0.1076824,0.9900191,5.637558
45.00121,108.4729,0.08649392,0.9896896,5.637558
45.05016,96.01237,0.05118008,0.9898543,5.631098
45.10015,94.86804,0.02469421,0.9896896,5.631098
45.15024,93.72369,0.03528843,0.9898543,5.631098
45.20002,93.72369,0.07060292,0.9900191,5.631098
45.2509,92.45221,0.06883668,0.9900191,5.631098
45.30003,93.59654,0.05294568,0.9898543,5.62464
45.34977,132.2497,0.06354055,0.9898543,5.62464
45.3996,136.4456,0.06707174,0.9898543,5.62464
45.4496,110.253,0.07236787,0.9898543,5.62464
45.50071,109.8716,0.07590036,0.9898543,5.61818
45.54979,106.1843,0.0776653,0.9898543,5.61818
45.5996,106.3114,0.08296274,0.9898543,5.61818
45.6504,109.363,0.08472899,0.9898543,5.61818
45.70019,110.253,0.08826017,0.9898543,5.611721
45.75099,99.06393,0.09179136,0.9896896,5.611721
45.80069,97.15671,0.09885374,0.9898543,5.611721
45.85073,95.50377,0.1129798,0.9898543,5.611721
45.9006,94.10515,0.1129798,0.9898543,5.611721
45.94977,94.2323,0.09179136,0.9898543,5.605262
46.00102,105.2942,0.08296274,0.9898543,5.605262
46.0506,136.6999,0.08296274,0.9898543,5.605262
46.1006,122.8407,0.08826017,0.9900191,5.605262
46.14977,109.6173,0.08649392,0.9898543,5.605262
46.19974,107.8372,0.08296274,0.9898543,5.598803
46.25102,104.277,0.07943155,0.9898543,5.598803
46.3006,107.0743,0.07943155,0.9898543,5.598803
46.3506,109.6173,0.07236787,0.9896896,5.598803
46.40047,109.7444,0.06354055,0.9898543,5.592343
46.45018,97.02956,0.04941449,0.9898543,5.592343
46.5011,94.61374,0.03352283,0.9900191,5.592343
46.55074,93.978,0.01409999,0.9896896,5.592343
46.6007,93.08795,-0.04593348,0.9898543,5.592343
46.65033,92.32506,-0.08831101,0.9898543,5.585885
46.70026,119.7892,-0.09360779,0.9898543,5.585885
46.75069,123.095,-0.09537338,0.9898543,5.592343
46.80074,112.9231,-0.09360779,0.9896896,5.585885
46.85074,106.1843,-0.09890523,0.9896896,5.579425
46.90026,101.8612,-0.09890523,0.9896896,5.579425
46.95055,104.0227,-0.09713899,0.9898543,5.579425
47.00101,108.9815,-0.1024364,0.9898543,5.579425
47.04975,108.4729,-0.1059676,0.9898543,5.579425
47.09974,96.52097,-0.1059676,0.9898543,5.572966
47.15021,93.46941,-0.111265,0.9898543,5.579425
47.20074,92.83366,-0.1077332,0.9896896,5.572966
47.25146,91.43503,-0.1324535,0.9898543,5.572966
47.30001,91.05358,-0.1660017,0.9898543,5.572966
47.34984,120.5521,-0.1748304,0.9898543,5.572966
47.40049,134.6656,-0.1712985,0.9898543,5.572966
47.45026,111.5245,-0.1536419,0.9898543,5.566507
47.50132,105.1671,-0.1483445,0.9898543,5.566507
47.54969,100.7169,-0.1430477,0.9898543,5.566507
47.60049,100.5897,-0.1342191,0.9898543,5.566507
47.65046,107.5829,-0.1306879,0.9898543,5.566507
47.70048,106.6929,-0.1324535,0.9898543,5.566507
47.75151,96.26666,-0.1289216,0.9900191,5.560048
47.79995,92.07076,-0.1077332,0.9898543,5.566507
47.84972,91.05358,-0.08301357,0.9898543,5.560048
47.90014,90.29069,-0.007088448,0.9898543,5.560048
47.94972,89.78209,0.04764889,0.9898543,5.560048
48.00171,88.7649,0.09885374,0.9898543,5.560048
48.05009,96.01237,0.1818426,0.9898543,5.553588
48.09996,132.8855,0.2701275,0.9898543,5.553588
48.15072,108.7272,0.3407552,0.9900191,5.553588
48.19981,103.8956,0.3990244,0.9900191,5.553588
48.25072,100.7169,0.4502299,0.9898543,5.547129
48.30047,97.9196,0.4996691,0.9898543,5.553588
48.35053,107.0743,0.5402797,0.9898543,5.547129
48.40013,107.0743,0.5755942,0.9900191,5.547129
48.45013,94.86804,0.6144399,0.9898543,5.547129
48.50133,93.46941,0.6426907,0.9898543,5.547129
48.54993,90.67213,0.6568168,0.9896896,5.547129
48.60046,91.05358,0.6709428,0.9898543,5.54067
48.65021,89.90925,0.6515194,0.9898543,5.547129
48.70005,89.5278,0.6303309,0.9898543,5.547129
48.751,97.79247,0.6003138,0.9898543,5.54067
48.80054,114.5761,0.5597032,0.9898543,5.54067
48.85023,111.1431,0.5226238,0.9898543,5.54067
48.90008,101.7341,0.4837781,0.9898543,5.54067
48.94998,95.24948,0.4466974,0.9898543,5.54067
49.001,92.19792,0.4131491,0.9896896,5.534211
49.04963,103.6413,0.3743034,0.9896896,5.534211
49.10055,104.4042,0.3266304,0.9896896,5.534211
49.15048,103.0055,0.2842535,0.9896896,5.534211
49.19994,89.5278,0.2542365,0.9898543,5.534211
49.25096,88.00201,0.2206882,0.9900191,5.527751
49.30033,87.11198,0.1836075,0.9898543,5.534211
49.35041,86.34908,0.1376994,0.9898543,5.527751
49.40046,86.22193,0.07413411,0.9898543,5.527751
49.45033,91.05358,0.0123344,0.9898543,5.527751
49.50084,130.724,-0.03180807,0.9900191,5.527751
49.55008,125.1294,-0.0565277,0.9896896,5.527751
49.60061,106.6929,-0.06712192,0.9898543,5.521293
49.65041,100.0811,-0.09890523,0.9898543,5.521293
49.69995,95.63092,-0.1024364,0.9898543,5.527751
49.75079,103.2598,-0.1094994,0.9898543,5.521293
49.80053,105.8028,-0.1200937,0.9896896,5.521293
49.84967,104.6585,-0.1236249,0.9900191,5.521293
49.90029,91.43503,-0.1253905,0.9898543,5.514833
49.94969,89.5278,-0.1342191,0.9898543,5.514833
50.00165,88.00201,-0.1430477,0.9898543,5.514833
50.05065,87.49342,-0.1501101,0.9900191,5.514833
50.10023,87.87486,-0.1818927,0.9898543,5.514833
50.15024,89.2735,-0.1960188,0.9900191,5.514833
50.20066,121.5692,-0.1871902,0.9898543,5.514833
50.25183,119.5349,-0.1483445,0.9898543,5.514833
50.30024,105.5485,-0.08124798,0.9896896,5.514833
50.35024,101.7341,0.001740176,0.9898543,5.508374
50.39999,98.9368,0.08826017,0.9898543,5.508374
50.45071,107.0743,0.1730139,0.9898543,5.508374
50.50146,107.9643,0.2648301,0.9896896,5.508374
50.55072,106.5657,0.3301616,0.9898543,5.514833
50.60056,96.64812,0.3884295,0.9898543,5.508374
50.64966,91.43503,0.4431662,0.9898543,5.508374
50.69997,90.67213,0.4943717,0.9896896,5.501915
50.75133,90.54498,0.5349836,0.9898543,5.508374
50.79979,90.29069,0.5685319,0.9898543,5.501915
50.85074,100.5897,0.5950177,0.9900191,5.501915
50.90069,126.6552,0.6426907,0.9898543,5.501915
50.95081,114.4489,0.6850676,0.9898543,5.508374
51.00148,106.5657,0.7133197,0.9898543,5.501915
51.0503,101.4798,0.732742,0.9898543,5.501915
51.10032,99.06393,0.7521654,0.9898543,5.501915
51.15057,106.82,0.762759,0.9898543,5.501915
51.19966,109.9987,0.7751188,0.9898543,5.501915
51.25127,108.7272,0.7645252,0.9898543,5.495456
51.2998,95.37663,0.7451017,0.9898543,5.495456
51.3497,93.34225,0.7203821,0.9898543,5.495456
51.40081,92.96081,0.6868339,0.9898543,5.495456
51.45033,91.68932,0.6356283,0.9898543,5.495456
51.50096,90.29069,0.5702968,0.9900191,5.495456
51.55045,119.9163,0.5067315,0.9898543,5.495456
51.60012,126.2737,0.4784807,0.9898543,5.488997
51.64972,108.2186,0.4502299,0.9896896,5.495456
51.69975,103.7684,0.4113842,0.9898543,5.488997
51.75171,97.41101,0.3637099,0.9898543,5.488997
51.80049,98.55534,0.321333,0.9898543,5.488997
51.85032,106.9472,0.2736587,0.9898543,5.488997
51.89994,107.5829,0.234813,0.9898543,5.488997
51.9498,97.53816,0.1836075,0.9898543,5.488997
52.0008,93.46941,0.1271059,0.9896896,5.482538
52.05085,91.43503,0.05824311,0.9896896,5.488997
52.10069,89.90925,0.02469421,0.9898543,5.482538
52.15082,89.90925,-0.03887111,0.9898543,5.488997
52.20056,89.2735,-0.1165618,0.9898543,5.482538
52.25161,99.19109,-0.1412821,0.9898543,5.482538
52.30032,132.2497,-0.1571731,0.9898543,5.482538
52.3507,112.2874,-0.1624705,0.9898543,5.476079
52.40023,108.8544,-0.1554075,0.9898543,5.476079
52.44969,106.4386,-0.1607043,0.9898543,5.482538
52.50081,103.6413,-0.1518763,0.9898543,5.482538
52.55044,109.6173,-0.1448133,0.9900191,5.476079
52.60052,109.8716,-0.1448133,0.9896896,5.476079
52.65068,109.4901,-0.1448133,0.9898543,5.482538
52.69972,97.66531,-0.1412821,0.9900191,5.476079
52.75092,95.88522,-0.1395159,0.9898543,5.476079
52.79978,94.10515,-0.1324535,0.9900191,5.476079
52.85023,94.35944,-0.1359847,0.9900191,5.469619
52.90116,92.57936,-0.1554075,0.9900191,5.469619
52.94968,108.4729,-0.1589387,0.9898543,5.476079
53.00074,139.4972,-0.127156,0.9898543,5.469619
53.05048,122.7136,-0.06712192,0.9898543,5.469619
53.10069,110.5073,0.02469421,0.9898543,5.469619
53.15148,109.4901,0.1147447,0.9898543,5.469619
53.20073,105.6757,0.2136246,0.9898543,5.469619
53.25092,108.7272,0.2983783,0.9898543,5.469619
53.29992,109.9987,0.3478189,0.9898543,5.469619
53.35091,109.9987,0.3990244,0.9898543,5.463161
53.40133,98.30104,0.4590585,0.9898543,5.469619
53.45031,96.13953,0.5102627,0.9898543,5.469619
53.50168,94.99519,0.5597032,0.9898543,5.463161
53.55006,94.48659,0.5967827,0.9898543,5.463161
53.60006,94.10515,0.6338621,0.9898543,5.463161
53.65141,92.96081,0.658583,0.9900191,5.463161
53.70016,106.3114,0.6815364,0.9898543,5.463161
53.75148,130.724,0.706256,0.9898543,5.463161
53.80068,133.5212,0.7203821,0.9898543,5.463161
53.85075,110.253,0.7239133,0.9898543,5.463161
53.90172,107.2015,0.7239133,0.9896896,5.456701
53.94983,104.4042,0.7221484,0.9898543,5.456701
54.00182,112.6688,0.6974275,0.9898543,5.456701
54.04972,112.6688,0.676239,0.9900191,5.456701
54.1002,107.0743,0.6426907,0.9900191,5.456701
54.15147,98.80965,0.6073775,0.9898543,5.456701
54.20018,97.28386,0.5773605,0.9898543,5.456701
54.25187,96.01237,0.5314511,0.9898543,5.450242
54.29982,95.24948,0.4943717,0.9898543,5.450242
54.35018,95.37663,0.4572922,0.9898543,5.456701
54.40107,93.72369,0.4025556,0.9898543,5.450242
54.45046,115.339,0.353115,0.9898543,5.450242
54.50166,134.2841,0.3178018,0.9900191,5.456701
54.54995,121.315,0.2860185,0.9898543,5.456701
54.60019,110.6345,0.2595326,0.9898543,5.450242
54.65137,104.1499,0.2259844,0.9900191,5.450242
54.70001,105.1671,0.1959673,0.9898543,5.450242
54.75101,111.906,0.1712477,0.9900191,5.450242
54.80072,112.1602,0.1465281,0.9898543,5.456701
54.85014,110.8888,0.1253396,0.9898543,5.450242
54.90089,97.66531,0.1041512,0.9898543,5.450242
54.95038,96.39381,0.08119649,0.9898543,5.450242
55.0009,94.86804,0.06530549,0.9898543,5.456701
55.05038,94.86804,0.04941449,0.9898543,5.456701
55.09989,94.48659,0.04235146,0.9898543,5.456701
55.1515,93.2151,-0.005322854,0.9898543,5.456701
55.20091,91.81647,-0.0565277,0.9898543,5.456701
55.251,126.4009,-0.08301357,0.9898543,5.456701
55.30013,139.2429,-0.0900766,0.9898543,5.456701
55.35037,115.8476,-0.08831101,0.9896896,5.456701
55.40077,112.6688,-0.08831101,0.9900191,5.456701
55.44976,111.7788,-0.0900766,0.9896896,5.456701
55.50152,109.1087,-0.08477917,0.9900191,5.450242
55.5505,111.3974,-0.08477917,0.9898543,5.456701
55.60074,112.2874,-0.08301357,0.9898543,5.450242
55.65105,111.6517,-0.08301357,0.9898543,5.450242
55.70067,99.82683,-0.08124798,0.9900191,5.450242
55.75116,98.6825,-0.07948238,0.9898543,5.450242
55.80067,97.53816,-0.07595055,0.9898543,5.450242
55.85062,96.39381,-0.07065376,0.9898543,5.450242
55.90089,94.48659,-0.05123092,0.9898543,5.450242
55.9507,93.46941,-0.01591707,0.9898543,5.450242
56.00101,90.41783,-0.003556607,0.9898543,5.450242
56.05051,92.07076,0.04764889,0.9898543,5.443783
56.10015,122.8407,0.116511,0.9898543,5.450242
56.1519,131.3597,0.2065622,0.9898543,5.443783
56.20075,111.2702,0.2895497,0.9898543,5.443783
56.25164,110.1259,0.3407552,0.9898543,5.443783
56.30014,106.3114,0.3866645,0.9898543,5.443783
56.35086,108.4729,0.4343376,0.9898543,5.443783
56.40188,110.6345,0.4837781,0.9898543,5.443783
56.45063,111.3974,0.5314511,0.9898543,5.443783
56.50107,99.06393,0.5667656,0.9898543,5.443783
56.55018,96.90242,0.6020801,0.9898543,5.437324
56.60012,96.77527,0.6479882,0.9898543,5.437324
56.65149,96.01237,0.6797715,0.9898543,5.437324
56.70036,94.48659,0.6974275,0.9896896,5.437324
56.75088,92.83366,0.7168509,0.9898543,5.437324
56.80083,90.54498,0.7186159,0.9898543,5.437324
56.84983,88.89205,0.7203821,0.9898543,5.437324
56.90141,105.2942,0.7150847,0.9900191,5.437324
56.9503,134.5384,0.6886001,0.9898543,5.437324
57.00076,117.2462,0.658583,0.9898543,5.430864
57.05083,105.5485,0.6179711,0.9896896,5.430864
57.10019,101.8612,0.5702968,0.9900191,5.430864
57.15132,99.95398,0.4979029,0.9896896,5.430864
57.20068,109.4901,0.4661209,0.9896896,5.430864
57.25183,107.5829,0.4272752,0.9898543,5.430864
57.30009,96.52097,0.3796009,0.9898543,5.430864
57.3503,93.85085,0.3354591,0.9900191,5.424405
57.40141,92.07076,0.2860185,0.9898543,5.424405
57.45093,91.68932,0.2489391,0.9898543,5.430864
57.5014,91.43503,0.1977336,0.9900191,5.430864
57.55083,91.18073,0.1465281,0.9898543,5.424405
57.60025,89.78209,0.05471127,0.9898543,5.424405
57.65159,87.74771,0.003505771,0.9898543,5.424405
57.69983,116.229,-0.008854043,0.9896896,5.424405
57.75118,134.157,0.008803206,0.9898543,5.424405
57.79995,108.7272,0.02646045,0.9898543,5.417946
57.8507,105.2942,0.04058586,0.9898543,5.424405
57.90113,101.0983,0.06530549,0.9898543,5.417946
57.9505,103.7684,0.1041512,0.9898543,5.417946
58.00182,105.5485,0.1271059,0.9896896,5.417946
58.0507,108.3458,0.1518255,0.9898543,5.417946
58.1002,96.52097,0.1853737,0.9898543,5.417946
58.15104,93.72369,0.2312818,0.9898543,5.417946
58.19978,91.43503,0.2948471,0.9898543,5.417946
58.25105,91.81647,0.3478189,0.9898543,5.417946
58.30037,91.18073,0.3990244,0.9898543,5.411487
58.35093,89.78209,0.4484636,0.9896896,5.411487
58.40195,87.87486,0.4908405,0.9898543,5.411487
58.44995,99.19109,0.5367485,0.9898543,5.411487
58.50195,125.638,0.5826566,0.9898543,5.411487
58.5507,118.5177,0.6303309,0.9898543,5.411487
58.60042,113.8132,0.6886001,0.9898543,5.411487
58.651,107.3286,0.7433368,0.9900191,5.411487
58.6998,102.497,0.7804163,0.9898543,5.411487
58.75161,106.5657,0.8069021,0.9898543,5.411487
58.80095,107.8372,0.8351529,0.9898543,5.411487
58.85095,108.0915,0.8598726,0.9898543,5.411487
58.90139,96.01237,0.8775298,0.9898543,5.411487
58.95082,93.46941,0.8987182,0.9898543,5.405028
59.00194,93.59654,0.9269691,0.9900191,5.405028
59.05095,92.07076,0.9428614,0.9900191,5.405028
59.10013,91.81647,0.9499238,0.9898543,5.405028
59.15121,90.54498,0.9534549,0.9898543,5.405028
59.19994,90.41783,0.9746433,0.9896896,5.405028
59.25182,125.1294,0.9923006,0.9900191,5.405028
59.3,130.2153,0.981707,0.9900191,5.398569
59.35067,103.7684,0.9799408,0.9898543,5.405028
59.40194,100.5897,0.9905357,0.9898543,5.398569
59.4507,97.79247,0.9923006,0.9898543,5.398569
59.50186,106.6929,0.983472,0.9898543,5.398569
59.55102,107.0743,0.9587524,0.9898543,5.398569
59.59982,106.1843,0.9463925,0.9898543,5.398569
59.65092,95.50377,0.9022495,0.9898543,5.392109
59.70098,92.57936,0.8739986,0.9898543,5.398569
59.75192,91.18073,0.8351529,0.9898543,5.398569
59.80069,91.30788,0.7998384,0.9898543,5.398569
59.8507,90.54498,0.7433368,0.9898543,5.398569
59.90199,89.0192,0.6938962,0.9896896,5.392109
59.95103,95.75809,0.6373946,0.9898543,5.392109
60.00202,127.5452,0.5614682,0.9898543,5.392109
60.05052,109.2358,0.5067315,0.9898543,5.392109
60.10028,104.5313,0.4625897,0.9896896,5.392109
60.15126,101.0983,0.4184465,0.9896896,5.392109
60.19994,97.9196,0.3901957,0.9898543,5.392109
60.25107,107.5829,0.353115,0.9900191,5.392109
60.30052,108.3458,0.3178018,0.9896896,5.392109
60.34995,106.3114,0.2789561,0.9898543,5.385651
60.40121,93.72369,0.2542365,0.9898543,5.392109
60.44994,91.81647,0.2224532,0.9898543,5.392109
60.50126,91.43503,0.2047959,0.9898543,5.385651
60.55048,90.67213,0.1942024,0.9898543,5.385651
60.60103,90.67213,0.1712477,0.9898543,5.385651
60.65202,89.14634,0.1218084,0.9898543,5.385651
60.70038,106.82,0.09179136,0.9898543,5.385651
60.75107,138.0986,0.07943155,0.9896896,5.379191
60.80069,138.0986,0.07413411,0.9898543,5.379191
60.85052,109.8716,0.08649392,0.9900191,5.385651
60.90138,108.3458,0.09532255,0.9898543,5.379191
60.95049,107.2015,0.1112136,0.9898543,5.385651
61.00093,108.3458,0.1218084,0.9898543,5.379191
61.05053,109.9987,0.1288708,0.9898543,5.379191
61.10052,111.2702,0.1394657,0.9898543,5.379191
61.15164,99.31824,0.1588879,0.9896896,5.379191
61.20068,96.26666,0.1836075,0.9898543,5.379191
61.25176,95.50377,0.2136246,0.9900191,5.372732
61.30077,94.10515,0.2454079,0.9898543,5.372732
61.35014,94.35944,0.2966134,0.9896896,5.372732
61.40197,92.07076,0.3283954,0.9898543,5.372732
61.45063,93.978,0.3601787,0.9900191,5.379191
61.50176,119.2806,0.4131491,0.9898543,5.372732
61.55072,127.6724,0.4572922,0.9898543,5.372732
61.60065,122.0779,0.5155601,0.9898543,5.372732
61.65176,110.253,0.5667656,0.9898543,5.366273
61.7003,107.9643,0.6091425,0.9900191,5.372732
61.75103,107.9643,0.6656454,0.9898543,5.372732
61.80093,109.9987,0.7521654,0.9898543,5.372732
61.85065,111.3974,0.8104333,0.9898543,5.372732
61.90176,101.0983,0.8457478,0.9898543,5.366273
61.95074,97.66531,0.8775298,0.9896896,5.372732
62.00127,96.90242,0.9234379,0.9900191,5.372732
62.04988,95.75809,0.9640498,0.9898543,5.366273
62.10046,94.86804,0.9870032,0.9898543,5.366273
62.15139,94.2323,1.002895,0.9898543,5.366273
62.20098,91.56216,1.050568,0.9898543,5.366273
62.2514,98.30104,1.092945,0.9900191,5.366273
62.30013,129.9611,1.101774,0.9896896,5.366273
62.35072,122.8407,1.114134,0.9898543,5.366273
62.40093,108.8544,1.138855,0.9898543,5.359814
62.45063,104.6585,1.151215,0.9900191,5.366273
62.50165,101.4798,1.161808,0.9898543,5.366273
62.55013,107.9643,1.156511,0.9898543,5.359814
62.60088,107.9643,1.163574,0.9896896,5.359814
62.65093,110.253,1.160043,0.9898543,5.359814
62.70045,96.90242,1.149448,0.9898543,5.359814
62.75165,94.86804,1.137089,0.9898543,5.359814
62.79989,93.72369,1.12826,0.9898543,5.359814
62.85088,93.34225,1.10354,0.9898543,5.359814
62.90088,92.96081,1.077054,0.9898543,5.359814
62.95076,92.32506,1.04174,0.9898543,5.359814
63.00192,92.19792,1.008192,0.9898543,5.359814
63.05063,110.6345,0.9622836,0.9898543,5.353354
63.10067,131.614,0.9004845,0.9898543,5.353354
63.15144,107.8372,0.8457478,0.9898543,5.353354
63.20041,106.3114,0.8157308,0.9898543,5.353354
63.2511,101.4798,0.77865,0.9898543,5.353354
63.30087,106.4386,0.7203821,0.9898543,5.353354
63.3504,110.253,0.6850676,0.9898543,5.353354
63.40188,109.4901,0.6497544,0.9900191,5.353354
63.44988,98.04675,0.5861891,0.9898543,5.353354
63.50113,96.13953,0.5226238,0.9898543,5.353354
63.55043,94.10515,0.485543,0.9898543,5.353354
63.60039,94.61374,0.455526,0.9898543,5.353354
63.651,94.35944,0.4166803,0.9900191,5.346895
63.701,93.34225,0.3690073,0.9898543,5.346895
63.75192,91.30788,0.3425214,0.9900191,5.346895
63.79996,97.15671,0.3230979,0.9798071,5.346895
63.85092,130.2153,0.3160355,0.9798071,5.346895
63.90092,125.5108,0.3142706,0.9798071,5.346895
63.95091,111.6517,0.3142706,0.9798071,5.346895
64.00151,110.8888,0.3178018,0.9798071,5.346895
64.05072,108.6001,0.321333,0.9798071,5.340436
64.10037,110.3802,0.3230979,0.9798071,5.346895
64.15117,111.3974,0.3230979,0.9799718,5.340436
64.2006,107.5829,0.3230979,0.9798071,5.340436
64.25159,99.19109,0.3248642,0.9799718,5.340436
64.30016,97.79247,0.3266304,0.9798071,5.340436
64.34996,97.28386,0.3283954,0.9798071,5.340436
64.40088,96.13953,0.3319266,0.9799718,5.340436
64.45074,95.24948,0.3425214,0.9798071,5.340436
64.50191,93.72369,0.3354591,0.9798071,5.340436
64.551,91.43503,0.3266304,0.9799718,5.333977
64.60061,91.68932,0.3266304,0.9799718,5.340436
64.65192,113.3046,0.3283954,0.9799718,5.340436
64.70016,131.3597,0.3354591,0.9799718,5.333977
64.75124,112.2874,0.3495838,0.9798071,5.333977
64.80064,110.5073,0.3654761,0.9798071,5.333977
64.85085,107.5829,0.3954919,0.9799718,5.340436
64.90175,109.8716,0.4272752,0.9799718,5.340436
64.95033,111.2702,0.4643546,0.9798071,5.333977
65.00087,111.7788,0.5120289,0.9799718,5.333977
65.05099,98.9368,0.5614682,0.9799718,5.333977
65.10036,96.90242,0.6162062,0.9798071,5.333977
65.15139,95.75809,0.6568168,0.9896896,5.333977
65.20109,95.24948,0.6938962,0.9898543,5.333977
65.25156,94.86804,0.732742,0.9898543,5.327518
65.30024,93.34225,0.7539304,0.9898543,5.333977
65.35036,90.67213,0.7645252,0.9898543,5.333977
65.40091,89.5278,0.77865,0.9896896,5.327518
65.45087,92.19792,0.7980735,0.9898543,5.327518
65.5016,126.7823,0.8174957,0.9898543,5.327518
65.55012,114.8304,0.8245594,0.9898543,5.327518
65.60098,108.9815,0.8369192,0.9898543,5.327518
65.65204,105.93,0.8510439,0.9898543,5.327518
65.70062,103.1327,0.8404503,0.9898543,5.327518
65.75159,110.3802,0.8386841,0.9900191,5.327518
65.80011,110.3802,0.8280905,0.9898543,5.327518
65.85059,109.4901,0.8051358,0.9900191,5.321059
65.90159,96.52097,0.7839474,0.9898543,5.321059
65.95016,94.74089,0.7609928,0.9898543,5.321059
66.00115,94.2323,0.7451017,0.9896896,5.321059
66.05088,93.72369,0.7203821,0.9898543,5.321059
66.10088,92.57936,0.7009599,0.9898543,5.321059
66.15088,91.18073,0.6797715,0.9898543,5.321059
66.20059,89.14634,0.660348,0.9898543,5.321059
66.25134,97.15671,0.6409258,0.9898543,5.321059
66.30104,133.0126,0.6091425,0.9898543,5.321059
66.35015,117.2462,0.5826566,0.9898543,5.321059
66.40132,106.0571,0.5597032,0.9896896,5.321059
66.45116,100.844,0.5438122,0.9898543,5.314599
66.50123,98.9368,0.5173264,0.9900191,5.321059
66.55046,107.3286,0.5049666,0.9898543,5.314599
66.60031,108.2186,0.4979029,0.9898543,5.314599
66.65121,97.53816,0.4890742,0.9900191,5.314599
66.70064,93.72369,0.4802469,0.9898543,5.314599
66.75153,91.30788,0.4767144,0.9898543,5.314599
66.80032,90.79928,0.4714183,0.9898543,5.314599
66.85011,90.29069,0.4590585,0.9898543,5.314599
66.90136,89.65494,0.453761,0.9898543,5.314599
66.95023,88.89205,0.4325726,0.9900191,5.314599
67.00109,86.98483,0.4043205,0.9898543,5.314599
67.05115,87.49342,0.3848983,0.9898543,5.314599
67.10115,134.0298,0.3725385,0.9898543,5.314599
67.15115,112.4145,0.3707722,0.9900191,5.30814
67.20002,106.9472,0.3707722,0.9898543,5.30814
67.25142,103.5141,0.3707722,0.9898543,5.30814
67.30023,101.2255,0.3654761,0.9898543,5.30814
67.35036,105.0399,0.3601787,0.9898543,5.30814
67.40151,108.2186,0.3495838,0.9898543,5.301681
67.45086,108.7272,0.3407552,0.9898543,5.30814
67.50156,95.50377,0.3283954,0.9898543,5.30814
67.55098,93.08795,0.3178018,0.9896896,5.30814
67.60055,92.07076,0.3036757,0.9898543,5.30814
67.65198,91.18073,0.2771899,0.9900191,5.301681
67.70071,90.67213,0.2630651,0.9898543,5.301681
67.75152,89.14634,0.2436416,0.9898543,5.301681
67.8,88.12916,0.2012647,0.9898543,5.301681
67.85073,90.67213,0.1677165,0.9900191,5.301681
67.90199,127.1638,0.1588879,0.9900191,5.301681
67.95039,132.2497,0.1500592,0.9898543,5.301681
68.00137,109.4901,0.1465281,0.9898543,5.301681
68.05018,105.0399,0.1394657,0.9896896,5.301681
68.1002,102.497,0.1359345,0.9898543,5.301681
68.15133,101.4798,0.1394657,0.9898543,5.295222
68.2,108.4729,0.1394657,0.9898543,5.301681
68.25198,107.9643,0.1412306,0.9898543,5.301681
68.30045,95.12233,0.1500592,0.9898543,5.295222
68.35066,92.32506,0.1624191,0.9898543,5.301681
68.40147,91.94361,0.1924361,0.9896896,5.295222
68.45087,90.54498,0.2418767,0.9900191,5.295222
68.50169,90.29069,0.2895497,0.9898543,5.295222
68.54997,89.2735,0.3495838,0.9898543,5.295222
68.601,88.7649,0.383132,0.9898543,5.295222
68.65165,86.98483,0.4255089,0.9898543,5.295222
68.7,129.7068,0.4678858,0.9898543,5.295222
68.75198,127.5452,0.5208576,0.9898543,5.288763
68.8001,107.3286,0.572063,0.9898543,5.288763
68.85037,102.7513,0.6267998,0.9898543,5.288763
68.90147,100.2083,0.6656454,0.9898543,5.288763
68.95016,103.387,0.6886001,0.9898543,5.288763
69.00197,107.9643,0.7150847,0.9898543,5.288763
69.05035,108.4729,0.7398043,0.9898543,5.288763
69.1011,96.90242,0.7539304,0.9900191,5.288763
69.15097,93.72369,0.7592278,0.9898543,5.288763
69.20017,92.19792,0.776885,0.9898543,5.288763
69.25194,91.81647,0.792776,0.9900191,5.288763
69.30035,91.81647,0.7857137,0.9898543,5.282304
69.34994,90.29069,0.7804163,0.9898543,5.288763
69.40169,89.14634,0.7733539,0.9898543,5.282304
69.45068,95.24948,0.7662902,0.9898543,5.282304
69.50139,126.4009,0.7486329,0.9898543,5.282304
69.55013,107.9643,0.7203821,0.9898543,5.282304
69.60014,103.387,0.706256,0.9900191,5.282304
69.65183,97.15671,0.6903651,0.9898543,5.282304
69.70013,98.04675,0.6691766,0.9900191,5.282304
69.75139,107.2015,0.628566,0.9898543,5.282304
69.80011,107.2015,0.572063,0.9898543,5.282304
69.85011,97.28386,0.5102627,0.9896896,5.282304
69.90164,93.2151,0.485543,0.9898543,5.275845
69.95012,91.81647,0.4590585,0.9898543,5.275845
70.00138,91.56216,0.4166803,0.9898543,5.275845
70.05007,90.92643,0.3725385,0.9898543,5.275845
70.10085,90.92643,0.3266304,0.9898543,5.275845
70.15193,90.54498,0.2771899,0.9898543,5.275845
70.20087,93.2151,0.2365792,0.9898543,5.275845
70.25163,131.3597,0.203031,0.9898543,5.275845
70.30014,116.1019,0.1818426,0.9896896,5.275845
70.35011,104.5313,0.1535904,0.9898543,5.275845
70.40138,101.7341,0.130637,0.9896896,5.275845
70.45112,101.4798,0.116511,0.9900191,5.275845
70.50211,109.6173,0.08826017,0.9898543,5.269385
70.55092,108.4729,0.04764889,0.9898543,5.275845
70.60088,98.6825,0.003505771,0.9898543,5.275845
70.65187,94.61374,-0.03180807,0.9900191,5.269385
70.70007,93.34225,-0.07771614,0.9898543,5.269385
70.75138,92.96081,-0.127156,0.9898543,5.269385
70.80011,92.7065,-0.1412821,0.9898543,5.269385
70.8501,91.94361,-0.1942532,0.9898543,5.269385
70.90145,89.78209,-0.2330982,0.9898543,5.269385
70.95007,110.6345,-0.2366301,0.9898543,5.269385
71.00137,135.937,-0.2330982,0.9898543,5.262926
71.05011,116.1019,-0.2260358,0.9898543,5.269385
71.10038,106.9472,-0.2207384,0.9898543,5.269385
71.15208,104.6585,-0.2295671,0.9898543,5.269385
71.20052,103.0055,-0.2330982,0.9898543,5.269385
71.25133,108.3458,-0.2295671,0.9900191,5.262926
71.30078,109.6173,-0.2295671,0.9898543,5.262926
71.3508,98.9368,-0.2366301,0.9898543,5.262926
71.40158,96.01237,-0.2330982,0.9898543,5.262926
71.45033,93.59654,-0.222504,0.9898543,5.262926
71.50209,93.59654,-0.2242703,0.9900191,5.262926
71.55061,93.08795,-0.2119098,0.9898543,5.262926
71.60062,93.34225,-0.2119098,0.9898543,5.256467
71.65133,90.29069,-0.2401613,0.9898543,5.262926
71.70007,96.64812,-0.2366301,0.9898543,5.262926
71.7517,123.9851,-0.183659,0.9898543,5.262926
71.80038,124.3665,-0.1077332,0.9898543,5.256467
71.85037,107.5829,0.005271365,0.9898543,5.256467
71.90105,104.5313,0.10062,0.9898543,5.256467
71.95104,101.8612,0.1977336,0.9896896,5.256467
72.00175,106.1843,0.2771899,0.9900191,5.256467
72.05049,108.3458,0.3478189,0.9898543,5.256467
72.10059,108.7272,0.3919607,0.9900191,5.256467
72.1515,96.52097,0.4449324,0.9900191,5.256467
72.201,93.978,0.5014353,0.9898543,5.256467
72.25107,93.978,0.5597032,0.9900191,5.250008
72.30092,92.96081,0.6073775,0.9900191,5.250008
72.35022,92.57936,0.6409258,0.9898543,5.250008
72.40133,91.05358,0.6656454,0.9898543,5.250008
72.45103,90.79928,0.6991937,0.9898543,5.250008
72.50101,94.99519,0.7168509,0.9898543,5.250008
72.55087,127.6724,0.732742,0.9898543,5.250008
72.60062,116.8647,0.7592278,0.9896896,5.250008
72.65197,103.1327,0.7874786,0.9900191,5.250008
72.70041,97.9196,0.792776,0.9898543,5.250008
72.7515,104.4042,0.8069021,0.9896896,5.250008
72.80004,108.2186,0.8139645,0.9898543,5.250008
72.85109,108.3458,0.8369192,0.9900191,5.243549
72.90141,96.64812,0.8210269,0.9900191,5.250008
72.95005,94.10515,0.8086671,0.9896896,5.243549
73.0012,92.83366,0.7945423,0.9898543,5.256467
73.05074,92.07076,0.7680565,0.9900191,5.250008
73.10044,92.19792,0.7292107,0.9900191,5.250008
73.15159,91.81647,0.6815364,0.9898543,5.243549
73.20004,92.96081,0.6515194,0.9896896,5.243549
73.25186,116.7376,0.6073775,0.9898543,5.243549
73.30029,114.5761,0.542046,0.9898543,5.243549
73.3511,104.7856,0.4943717,0.9898543,5.243549
73.4011,98.9368,0.4731832,0.9898543,5.243549
73.4502,96.52097,0.4714183,0.9898543,5.237089
73.50132,107.3286,0.5473434,0.9898543,5.243549
73.55082,107.9643,0.587954,0.9898543,5.237089
73.60005,107.2015,0.6038451,0.9898543,5.237089
73.65161,95.63092,0.6038451,0.9900191,5.237089
73.70054,92.96081,0.5861891,0.9898543,5.237089
73.75206,92.32506,0.5402797,0.9898543,5.237089
73.80082,91.81647,0.4678858,0.9898543,5.237089
73.85054,91.56216,0.3319266,0.9898543,5.237089
73.90154,90.29069,0.1606541,0.9898543,5.23063
73.951,112.2874,0.04941449,0.9898543,5.23063
74.00146,137.0814,-0.008854043,0.9900191,5.237089
74.0511,119.1534,-0.03357367,0.9898543,5.237089
74.10069,109.6173,-0.03533926,0.9898543,5.237089
74.15161,107.5829,-0.05829395,0.9898543,5.237089
74.20061,105.5485,-0.07241935,0.9898543,5.237089
74.25211,110.5073,-0.0565277,0.9898543,5.237089
74.30034,111.7788,-0.05123092,0.9898543,5.23063
74.35112,100.0811,-0.05829395,0.9898543,5.23063
74.40127,97.41101,-0.08477917,0.9898543,5.23063
74.45049,94.48659,-0.1059676,0.9898543,5.23063
74.50134,93.978,-0.1147962,0.9898543,5.23063
74.55082,93.72369,-0.127156,0.9896896,5.23063
74.60085,93.59654,-0.1924876,0.9898543,5.237089
74.65106,91.94361,-0.2401613,0.9900191,5.23063
74.70055,133.9027,-0.2525211,0.9898543,5.23063
74.75131,129.3253,-0.2701783,0.9898543,5.23063
74.80016,111.7788,-0.2931324,0.9898543,5.23063
74.8502,108.6001,-0.3284469,0.9896896,5.224171
74.90134,106.82,-0.3496353,0.9898543,5.224171
74.95053,106.82,-0.3566977,0.9896896,5.23063
75.00172,109.7444,-0.3761205,0.9896896,5.224171
75.05032,111.3974,-0.4008408,0.9898543,5.224171
75.10048,99.44539,-0.420263,0.9898543,5.224171
75.15142,96.26666,-0.4167318,0.9898543,5.217712
75.20073,95.63092,-0.4167318,0.9898543,5.224171
75.25193,94.48659,-0.381418,0.9898543,5.217712
75.30118,93.59654,-0.3743549,0.9900191,5.224171
75.35108,93.08795,-0.3496353,0.9898543,5.224171
75.40116,94.74089,-0.2666471,0.9898543,5.217712
75.45107,137.2085,-0.1624705,0.9898543,5.217712
75.50112,116.9919,-0.05123092,0.9898543,5.217712
75.55054,109.363,0.05824311,0.9898543,5.217712
75.60072,108.8544,0.1571229,0.9896896,5.217712
75.65106,105.6757,0.234813,0.9900191,5.217712
75.70068,109.8716,0.3001446,0.9898543,5.217712
75.75156,111.1431,0.3901957,0.9898543,5.217712
75.80012,100.0811,0.4431662,0.9898543,5.217712
75.85009,97.28386,0.4979029,0.9898543,5.211253
75.90217,95.63092,0.5438122,0.9898543,5.217712
75.95006,95.24948,0.5844229,0.9898543,5.217712
76.00185,94.99519,0.6338621,0.9898543,5.211253
76.05054,92.83366,0.6638792,0.9898543,5.211253
76.10045,96.90242,0.6903651,0.9900191,5.211253
76.15212,110.8888,0.7203821,0.9898543,5.211253
76.20043,121.315,0.7503992,0.9898543,5.211253
76.25126,107.9643,0.7821825,0.9898543,5.211253
76.30119,104.5313,0.7945423,0.9898543,5.211253
76.35098,102.1155,0.803371,0.9898543,5.211253
76.4013,110.3802,0.8227931,0.9896896,5.204794
76.4511,110.8888,0.8439816,0.9900191,5.211253
76.50217,110.1259,0.8439816,0.9900191,5.204794
76.55118,98.80965,0.8422153,0.9896896,5.211253
76.60027,96.52097,0.849279,0.9898543,5.204794
76.65141,95.12233,0.8545751,0.9900191,5.204794
76.70053,95.24948,0.8245594,0.9898543,5.204794
76.75105,93.85085,0.8016047,0.9898543,5.204794
76.80009,92.96081,0.762759,0.9898543,5.204794
76.85129,99.44539,0.7256796,0.9898543,5.211253
76.90221,122.3321,0.6815364,0.9896896,5.204794
76.95068,109.4901,0.6621143,0.9898543,5.204794
77.00172,103.1327,0.6515194,0.9898543,5.204794
77.05131,98.6825,0.644457,0.9898543,5.204794
77.1012,106.5657,0.6126737,0.9900191,5.204794
77.15221,110.1259,0.5914853,0.9898543,5.204794
77.20055,109.4901,0.5702968,0.9900191,5.204794
77.25105,97.15671,0.5667656,0.9898543,5.198335
77.30032,94.86804,0.5597032,0.9900191,5.198335
77.35056,92.96081,0.5491084,0.9900191,5.198335
77.40134,93.2151,0.5438122,0.9898543,5.198335
77.4508,92.57936,0.5155601,0.9898543,5.198335
77.50141,92.45221,0.4749495,0.9898543,5.198335
77.55019,100.2083,0.4466974,0.9898543,5.198335
77.60084,120.9335,0.4308064,0.9898543,5.198335
77.65164,114.3218,0.4184465,0.9898543,5.198335
77.7003,110.1259,0.4149154,0.9900191,5.198335
77.75105,110.253,0.4166803,0.9898543,5.191875
77.80054,106.5657,0.4166803,0.9900191,5.198335
77.85128,110.1259,0.4096179,0.9898543,5.198335
77.90132,111.3974,0.3919607,0.9900191,5.191875
77.9502,101.7341,0.3848983,0.9896896,5.191875
78.00167,97.79247,0.3813671,0.9898543,5.191875
78.05027,96.01237,0.3796009,0.9898543,5.191875
78.10086,96.13953,0.3725385,0.9900191,5.191875
78.1518,93.978,0.3637099,0.9898543,5.191875
78.2004,93.34225,0.3407552,0.9898543,5.191875
78.25202,94.35944,0.3442877,0.9900191,5.191875
78.3009,113.9403,0.353115,0.9898543,5.191875
78.35132,125.3837,0.3796009,0.9898543,5.191875
78.40135,116.1019,0.4378687,0.9898543,5.185416
78.45136,109.8716,0.5014353,0.9898543,5.185416
78.50232,106.6929,0.5526395,0.9898543,5.185416
78.55054,107.3286,0.5932515,0.9896896,5.185416
78.6004,109.4901,0.6320972,0.9898543,5.185416
78.65221,111.2702,0.658583,0.9898543,5.185416
78.70096,101.6069,0.6744741,0.9898543,5.185416
78.75204,98.1739,0.6921313,0.9898543,5.185416
78.80006,95.88522,0.7186159,0.9898543,5.185416
78.85007,94.86804,0.7486329,0.9898543,5.185416
78.9013,94.2323,0.7698213,0.9898543,5.178957
78.95008,93.34225,0.776885,0.9898543,5.185416
79.00179,94.10515,0.7998384,0.9898543,5.178957
79.05049,112.9231,0.8210269,0.9898543,5.178957
79.10054,122.4593,0.8280905,0.9898543,5.178957
79.15151,109.1087,0.8439816,0.9898543,5.178957
79.20107,106.6929,0.8528102,0.9900191,5.178957
79.2511,104.1499,0.8722324,0.9898543,5.178957
79.3008,107.5829,0.8704674,0.9900191,5.178957
79.35032,109.9987,0.8722324,0.9898543,5.178957
79.40137,110.253,0.8845922,0.9898543,5.178957
79.45079,97.9196,0.9004845,0.9900191,5.178957
79.50133,95.63092,0.8969533,0.9898543,5.172498
79.55077,94.74089,0.8881246,0.9900191,5.178957
79.60051,94.35944,0.8951871,0.9900191,5.178957
79.65166,94.10515,0.8934208,0.9900191,5.172498
79.70025,92.7065,0.8598726,0.9898543,5.172498
79.75198,93.978,0.8333867,0.9896896,5.172498
79.80038,109.6173,0.7892449,0.9900191,5.172498
79.85099,119.2806,0.762759,0.9900191,5.172498
79.90228,108.4729,0.7362731,0.9898543,5.172498
79.95125,103.8956,0.7133197,0.9898543,5.172498
80.00187,101.2255,0.7009599,0.9896896,5.172498
80.05062,108.2186,0.6938962,0.9898543,5.172498
80.10049,109.8716,0.6638792,0.9898543,5.172498
80.15151,109.9987,0.6373946,0.9898543,5.166039
80.201,96.52097,0.6126737,0.9898543,5.166039
80.2519,94.86804,0.5914853,0.9898543,5.166039
80.30048,93.72369,0.5597032,0.9898543,5.166039
80.35064,92.7065,0.5367485,0.9898543,5.166039
80.40125,92.7065,0.485543,0.9898543,5.166039
80.45113,92.07076,0.4149154,0.9898543,5.166039
80.502,127.5452,0.3796009,0.9898543,5.166039
80.55078,137.9714,0.3584124,0.9900191,5.166039
80.60051,126.7823,0.3442877,0.9898543,5.166039
80.65142,111.906,0.3248642,0.9898543,5.166039
80.7009,111.3974,0.2913159,0.9898543,5.166039
80.75151,108.0915,0.2701275,0.9900191,5.166039
80.80077,109.4901,0.2401104,0.9900191,5.159579
80.85117,111.6517,0.2277506,0.9898543,5.166039
80.90115,101.2255,0.2047959,0.9898543,5.159579
80.95102,98.30104,0.1800763,0.9900191,5.166039
81.00215,97.15671,0.1571229,0.9898543,5.159579
81.05045,96.77527,0.1412306,0.9900191,5.159579
81.10041,96.26666,0.130637,0.9898543,5.159579
81.1515,94.35944,0.0970888,0.9900191,5.159579
81.20016,92.83366,0.05118008,0.9898543,5.159579
81.25178,100.9712,0.02116302,0.9898543,5.159579
81.30132,132.2497,0.003505771,0.9898543,5.159579
81.35052,117.7548,-0.01061964,0.9898543,5.159579
81.40182,113.0503,-0.01768267,0.9896896,5.159579
81.45074,112.2874,-0.0406367,0.9900191,5.15312
81.50203,108.7272,-0.03887111,0.9898543,5.15312
81.55048,109.363,-0.03357367,0.9898543,5.159579
81.60128,111.2702,-0.02121386,0.9898543,5.159579
81.65174,111.2702,0.001740176,0.9900191,5.159579
81.70027,100.3354,0.04058586,0.9898543,5.159579
81.75153,97.53816,0.07943155,0.9898543,5.159579
81.80027,95.50377,0.1482943,0.9898543,5.159579
81.85094,95.24948,0.2330481,0.9898543,5.15312
81.90175,94.61374,0.3142706,0.9898543,5.159579
81.95107,92.57936,0.3230979,0.9896896,5.159579
82.00131,95.37663,0.3301616,0.9898543,5.159579
82.05123,118.772,0.3672411,0.9900191,5.15312
82.10064,129.1982,0.4414012,0.9896896,5.146661
82.15187,110.3802,0.5561721,0.9898543,5.146661
82.20113,108.9815,0.6744741,0.9898543,5.146661
82.25214,105.93,0.776885,0.9898543,5.146661
82.30036,105.6757,0.8369192,0.9900191,5.146661
82.35094,108.9815,0.8581076,0.9898543,5.146661
82.40212,109.7444,0.8739986,0.9898543,5.146661
82.45102,97.66531,0.9057806,0.9900191,5.15312
82.50215,95.37663,0.8987182,0.9898543,5.146661
82.55101,94.2323,0.8775298,0.9900191,5.146661
82.60114,94.61374,0.8881246,0.9898543,5.146661
82.65202,94.86804,0.9322665,0.9898543,5.146661
82.7011,93.72369,0.95169,0.9898543,5.146661
82.75211,97.41101,0.9552212,0.9898543,5.146661
82.8009,128.4353,0.9322665,0.9898543,5.140202
82.85102,129.3253,0.9234379,0.9900191,5.140202
82.90199,109.4901,0.8739986,0.9898543,5.140202
82.95064,103.0055,0.8280905,0.9898543,5.146661
83.00193,99.31824,0.7645252,0.9898543,5.140202
83.05027,107.9643,0.7221484,0.9898543,5.140202
83.10114,110.1259,0.676239,0.9900191,5.140202
83.15165,109.7444,0.6250335,0.9896896,5.140202
83.20125,95.24948,0.5226238,0.9898543,5.140202
83.25229,94.10515,0.4431662,0.9898543,5.140202
83.30052,92.96081,0.3778359,0.9898543,5.140202
83.35035,93.08795,0.321333,0.9898543,5.140202
83.40157,92.07076,0.2242194,0.9898543,5.140202
83.45058,94.10515,0.1200422,0.9900191,5.133743
83.50214,117.7548,0.04058586,0.9896896,5.133743
83.55126,123.9851,-0.02827688,0.9896896,5.133743
83.60054,118.5177,-0.06888817,0.9896896,5.133743
83.65202,103.1327,-0.104202,0.9898543,5.133743
83.70126,100.2083,-0.1430477,0.9898543,5.133743
83.75226,105.4214,-0.1801271,0.9898543,5.127283
83.80058,108.7272,-0.2260358,0.9898543,5.133743
83.85046,109.1087,-0.2843037,0.9900191,5.133743
83.90149,95.37663,-0.3302124,0.9900191,5.133743
83.95123,92.96081,-0.3496353,0.9896896,5.127283
84.00122,91.68932,-0.3619951,0.9896896,5.127283
84.05073,91.30788,-0.3672919,0.9900191,5.127283
84.10023,91.18073,-0.3778861,0.9898543,5.127283
84.15136,89.40065,-0.4184974,0.9898543,5.127283
84.20103,103.8956,-0.4308572,0.9898543,5.127283
84.25147,137.4628,-0.4255604,0.9898543,5.127283
84.30022,130.5968,-0.4167318,0.9898543,5.127283
84.35048,107.5829,-0.4079032,0.9898543,5.127283
84.40147,105.0399,-0.4026064,0.9898543,5.127283
84.45097,103.2598,-0.3937778,0.9898543,5.127283
84.50237,107.8372,-0.3761205,0.9898543,5.120825
84.55076,109.4901,-0.3708237,0.9898543,5.127283
84.60021,102.2427,-0.3708237,0.9898543,5.120825
84.65186,96.52097,-0.3690575,0.9898543,5.127283
84.70036,93.08795,-0.3655263,0.9898543,5.127283
84.75134,91.68932,-0.3761205,0.9898543,5.120825
84.80107,91.43503,-0.3637607,0.9898543,5.120825
84.85083,91.43503,-0.381418,0.9898543,5.120825
84.90179,90.67213,-0.4220292,0.9898543,5.120825
84.95038,100.9712,-0.4326234,0.9898543,5.120825
85.00226,134.9198,-0.427326,0.9896896,5.114365
85.05048,111.2702,-0.4149662,0.9898543,5.120825
85.10082,105.8028,-0.4008408,0.9898543,5.120825
85.15151,102.2427,-0.3937778,0.9898543,5.114365
85.20084,101.4798,-0.3761205,0.9896896,5.120825
85.25221,107.2015,-0.3672919,0.9898543,5.114365
85.30029,109.6173,-0.3672919,0.9900191,5.114365
85.35052,98.80965,-0.3655263,0.9896896,5.114365
85.40177,94.48659,-0.3584633,0.9896896,5.114365
85.45101,92.32506,-0.3337436,0.9900191,5.114365
85.50202,91.43503,-0.2878356,0.9898543,5.114365
85.55046,91.43503,-0.1871902,0.9898543,5.114365
85.60047,91.56216,-0.09360779,0.9898543,5.120825
85.6517,90.03638,-0.01061964,0.9898543,5.114365
85.70127,93.08795,0.09885374,0.9900191,5.120825
85.75125,127.2909,0.2065622,0.9898543,5.120825
85.801,121.315,0.2966134,0.9898543,5.120825
85.8513,105.93,0.3972581,0.9898543,5.120825
85.90202,101.4798,0.4608234,0.9896896,5.120825
85.95074,99.95398,0.5243887,0.9898543,5.127283
86.00202,107.8372,0.6020801,0.9898543,5.127283
86.05077,109.7444,0.6638792,0.9900191,5.133743
86.10123,109.1087,0.6886001,0.9898543,5.133743
86.15119,94.86804,0.7221484,0.9898543,5.140202
86.20102,92.07076,0.7574615,0.9898543,5.146661
86.25201,91.05358,0.7945423,0.9898543,5.146661
86.30058,91.43503,0.8227931,0.9898543,5.15312
86.35048,91.05358,0.8369192,0.9898543,5.159579
86.40182,90.29069,0.8545751,0.9898543,5.166039
86.45054,105.5485,0.8775298,0.9901838,5.172498
86.50154,129.8339,0.8792961,0.9898543,5.185416
86.55127,111.2702,0.8828272,0.9898543,5.191875
86.60047,105.2942,0.8845922,0.9898543,5.198335
86.65178,93.08795,0.8881246,0.9898543,5.204794
86.70097,97.02956,0.8669362,0.9898543,5.217712
86.752,104.4042,0.8404503,0.9898543,5.224171
86.8008,105.6757,0.8051358,0.9898543,5.237089
86.85086,94.61374,0.7857137,0.9898543,5.250008
86.9012,91.43503,0.7433368,0.9898543,5.256467
86.95121,89.78209,0.7150847,0.9898543,5.275845
87.0023,89.40065,0.6850676,0.9896896,5.288763
87.05112,88.5106,0.6638792,0.9898543,5.301681
87.10086,88.12916,0.6056113,0.9898543,5.314599
87.15128,104.1499,0.5402797,0.9898543,5.327518
87.20029,124.4937,0.4767144,0.9898543,5.340436
87.25154,107.3286,0.4449324,0.9898543,5.359814
87.30058,100.844,0.4043205,0.9898543,5.372732
87.35062,93.72369,0.353115,0.9898543,5.385651
87.40124,95.24948,0.2930822,0.9898543,5.405028
87.45141,106.3114,0.2383442,0.9900191,5.417946
87.5024,105.5485,0.1747789,0.9898543,5.437324
87.55074,94.74089,0.1376994,0.9896896,5.450242
87.60049,92.7065,0.10062,0.9898543,5.469619
87.65149,89.78209,0.02999164,0.9898543,5.482538
87.70047,89.14634,-0.01768267,0.9898543,5.501915
87.75166,89.14634,-0.1006708,0.9898543,5.521293
87.80029,89.14634,-0.1854246,0.9898543,5.534211
87.85028,102.6241,-0.222504,0.9898543,5.547129
87.9015,134.4113,-0.2401613,0.9898543,5.566507
87.95052,111.6517,-0.2507555,0.9896896,5.579425
88.00223,105.5485,-0.2507555,0.9898543,5.592343
88.05098,103.6413,-0.2578185,0.9900191,5.605262
88.10073,104.277,-0.2560529,0.9898543,5.61818
88.15213,110.8888,-0.2737095,0.9898543,5.631098
88.20046,111.0159,-0.2896012,0.9898543,5.644017
88.25241,98.80965,-0.2948979,0.9898543,5.656935
88.30093,95.37663,-0.2896012,0.9898543,5.676312
88.35088,94.10515,-0.2966642,0.9898543,5.68923
88.40213,93.72369,-0.2948979,0.9898543,5.69569
88.45065,92.83366,-0.3390411,0.9898543,5.708608
88.50128,96.01237,-0.3778861,0.9898543,5.721527
88.55074,123.2222,-0.3902459,0.9898543,5.734445
88.60049,139.2429,-0.3955434,0.9898543,5.747364
88.65153,110.6345,-0.3849491,0.9898543,5.760282
88.70037,106.82,-0.3778861,0.9898543,5.766741
88.7524,104.4042,-0.3708237,0.9898543,5.779659
88.80098,107.8372,-0.3602295,0.9896896,5.792577
88.85059,111.3974,-0.3549321,0.9898543,5.799037
88.90125,111.6517,-0.3514009,0.9898543,5.811954
88.95049,99.57254,-0.3443379,0.9898543,5.818414
89.00146,96.77527,-0.3372748,0.9898543,5.824873
89.0514,94.86804,-0.3408067,0.9898543,5.831332
89.10048,94.10515,-0.3372748,0.9898543,5.85071
89.15236,94.10515,-0.3619951,0.9798071,5.857169
89.20073,95.50377,-0.3867147,0.9798071,5.863628
89.25173,120.1706,-0.3884803,0.9799718,5.870087
89.30092,128.0538,-0.381418,0.9798071,5.876546
89.35099,111.1431,-0.3725893,0.9799718,5.889464
89.40225,107.9643,-0.3655263,0.9798071,5.895924
89.45098,104.7856,-0.3514009,0.9799718,5.902383
89.50174,108.7272,-0.3372748,0.9799718,5.908842
89.55025,110.6345,-0.3355092,0.9799718,5.915301
89.60024,112.1602,-0.3372748,0.9798071,5.921761
89.65177,112.1602,-0.3302124,0.9798071,5.92822
89.70039,97.53816,-0.2896012,0.9798071,5.934679
89.75125,95.63092,-0.2278014,0.9798071,5.934679
89.80064,94.86804,-0.1377503,0.9798071,5.934679
89.85125,94.35944,-0.06182514,0.9799718,5.947598
89.90205,93.34225,0.03175724,0.9799718,5.947598
89.95053,107.2015,0.1394657,0.9796425,5.954056
90.00225,137.0814,0.2383442,0.9798071,5.954056
90.05097,116.6105,0.3319266,0.9799718,5.960516
90.10064,107.9643,0.4131491,0.9798071,5.966975
90.15198,104.9128,0.4749495,0.9798071,5.966975
90.2009,103.6413,0.5402797,0.9799718,5.966975
90.25166,112.4145,0.6038451,0.9798071,5.973434
90.30074,111.1431,0.6497544,0.9798071,5.973434
90.35123,100.0811,0.6815364,0.9798071,5.979893
90.40152,97.15671,0.706256,0.9798071,5.979893
90.45025,95.37663,0.7398043,0.9900191,5.986352
90.50162,94.86804,0.762759,0.9898543,5.979893
90.55124,94.48659,0.7680565,0.9898543,5.986352
90.60104,93.2151,0.7733539,0.9898543,5.986352
90.65224,99.19109,0.7892449,0.9898543,5.992811
90.70089,128.4353,0.792776,0.9898543,5.992811
90.7522,109.4901,0.7998384,0.9898543,5.992811
90.80077,102.6241,0.7963073,0.9898543,5.992811
90.85081,97.15671,0.8139645,0.9898543,5.992811
90.90209,105.5485,0.8051358,0.9898543,6.00573
90.95058,109.1087,0.7945423,0.9898543,5.99927
91.00163,108.3458,0.7874786,0.9900191,5.99927
91.05151,96.77527,0.7821825,0.9898543,5.99927
91.10124,94.74089,0.7433368,0.9898543,5.99927
91.15252,93.72369,0.7097886,0.9898543,5.99927
91.20107,92.96081,0.6815364,0.9896896,5.99927
91.25222,92.57936,0.644457,0.9896896,5.99927
91.30089,92.45221,0.572063,0.9898543,6.00573
91.35067,107.9643,0.5032003,0.9896896,6.00573
91.40251,122.9679,0.4731832,0.9896896,6.00573
91.45086,106.3114,0.4572922,0.9898543,6.00573
91.50209,100.7169,0.4290414,0.9896896,6.00573
91.55106,98.6825,0.4007893,0.9898543,5.99927
91.60146,102.8784,0.3690073,0.9898543,5.99927
91.65143,108.3458,0.337224,0.9900191,6.00573
91.70036,108.4729,0.305442,0.9900191,6.00573
91.75129,96.39381,0.2612989,0.9898543,6.00573
91.80084,93.72369,0.2083271,0.9898543,6.00573
91.85052,92.45221,0.1783114,0.9900191,6.00573
91.90163,92.32506,0.116511,0.9898543,6.00573
91.95055,93.34225,0.02469421,0.9898543,5.99927
92.00151,114.4489,-0.04946532,0.9898543,5.99927
92.05036,140.1329,-0.08477917,0.9898543,5.99927
92.1012,126.0195,-0.1236249,0.9898543,5.992811
92.1522,109.1087,-0.1448133,0.9898543,5.992811
92.20132,106.4386,-0.1607043,0.9896896,5.992811
92.25234,107.5829,-0.176596,0.9898543,5.992811
92.30059,112.5417,-0.2030818,0.9898543,5.986352
92.35033,113.3046,-0.2295671,0.9898543,5.986352
92.40147,101.3526,-0.2578185,0.9896896,5.986352
92.45097,97.66531,-0.2666471,0.9898543,5.979893
92.50219,96.01237,-0.2948979,0.9898543,5.979893
92.55092,95.63092,-0.2931324,0.9898543,5.973434
92.60046,95.24948,-0.3408067,0.9898543,5.979893
92.65159,97.28386,-0.3725893,0.9898543,5.973434
92.7013,120.2978,-0.381418,0.9898543,5.966975
92.75196,137.2085,-0.3831835,0.9898543,5.966975
92.80122,115.4661,-0.3708237,0.9896896,5.960516
92.85101,112.5417,-0.3672919,0.9900191,5.960516
92.90218,109.4901,-0.3637607,0.9898543,5.960516
92.95084,110.253,-0.3531665,0.9898543,5.954056
93.0015,113.3046,-0.3531665,0.9898543,5.954056
93.05148,113.686,-0.3531665,0.9900191,5.954056
93.1012,102.2427,-0.3514009,0.9898543,5.947598
93.15247,100.2083,-0.3461035,0.9896896,5.947598
93.20097,99.44539,-0.3337436,0.9900191,5.947598
93.25196,99.19109,-0.3143208,0.9898543,5.941138
93.30144,97.66531,-0.3107896,0.9900191,5.941138
93.35095,104.4042,-0.2330982,0.9898543,5.941138
93.40247,136.4456,-0.1059676,0.9896896,5.934679
93.451,125.638,0.0105688,0.9900191,5.934679
93.50204,114.7032,0.132402,0.9898543,5.941138
93.5507,113.8132,0.2312818,0.9898543,5.934679
93.60122,112.9231,0.3195668,0.9898543,5.934679
93.65193,115.0847,0.3884295,0.9898543,5.934679
93.70045,115.7204,0.439635,0.9898543,5.934679
93.75231,114.4489,0.4890742,0.9898543,5.941138
93.80062,103.6413,0.542046,0.9896896,5.941138
93.85075,102.1155,0.6038451,0.9898543,5.941138
93.90146,101.4798,0.6515194,0.9898543,5.941138
93.95129,100.9712,0.6780052,0.9898543,5.941138
94.00236,99.57254,0.6974275,0.9896896,5.941138
94.05099,101.9884,0.7203821,0.9898543,5.947598
94.10071,124.2394,0.732742,0.9898543,5.947598
94.15199,138.8615,0.7539304,0.9898543,5.947598
94.20097,116.9919,0.7733539,0.9898543,5.954056
94.25209,112.6688,0.7874786,0.9898543,5.954056
94.30034,109.8716,0.7910098,0.9898543,5.954056
94.35043,113.3046,0.7945423,0.9898543,5.960516
94.4013,115.7204,0.7998384,0.9896896,5.960516
94.45058,113.3046,0.8121982,0.9900191,5.966975
94.50146,104.4042,0.7998384,0.9896896,5.960516
94.55146,102.8784,0.77865,0.9896896,5.966975
94.60154,102.1155,0.7609928,0.9896896,5.966975
94.65222,100.2083,0.7380394,0.9896896,5.966975
94.70058,99.82683,0.7044911,0.9898543,5.973434
94.7517,98.6825,0.6691766,0.9896896,5.973434
94.80045,97.15671,0.6215023,0.9898543,5.979893
94.85146,111.6517,0.5650007,0.9898543,5.973434
94.90132,133.0126,0.5120289,0.9896896,5.979893
94.95126,112.5417,0.4731832,0.9898543,5.979893
95.00167,111.6517,0.4484636,0.9898543,5.979893
95.05126,107.8372,0.423744,0.9898543,5.979893
95.10099,109.6173,0.3954919,0.9898543,5.986352
95.15199,114.5761,0.353115,0.9896896,5.986352
95.20096,113.686,0.305442,0.9896896,5.986352
95.25143,102.497,0.2648301,0.9898543,5.986352
95.30134,100.2083,0.2224532,0.9896896,5.986352
95.35102,99.06393,0.1853737,0.9898543,5.992811
95.40179,98.9368,0.1571229,0.9898543,5.986352
95.45145,98.30104,0.1235734,0.9898543,5.992811
95.50159,97.15671,0.08472899,0.9896896,5.992811
95.55159,94.61374,0.008803206,0.9898543,5.992811
95.60146,94.48659,-0.09360779,0.9898543,5.992811
95.65245,92.57936,-0.1818927,0.9896896,5.992811
95.70094,121.4421,-0.2154416,0.9898543,5.992811
95.75182,132.1226,-0.2348645,0.9898543,5.992811
95.80141,114.9575,-0.2401613,0.9898543,5.992811
95.85056,114.5761,-0.2595841,0.9898543,5.992811
95.90144,112.9231,-0.2772413,0.9898543,5.992811
95.95071,111.6517,-0.2772413,0.9896896,5.992811
96.00227,113.3046,-0.2825381,0.9896896,5.992811
96.05105,113.0503,-0.2984298,0.9898543,5.992811
96.10074,102.6241,-0.3037266,0.9898543,5.992811
96.15153,101.7341,-0.3054922,0.9896896,5.992811
96.20134,99.95398,-0.3072584,0.9898543,5.992811
96.25194,98.80965,-0.3107896,0.9898543,5.992811
96.30034,98.30104,-0.3054922,0.9898543,5.992811
96.35056,96.39381,-0.309024,0.9896896,5.992811
96.4017,94.74089,-0.3107896,0.9898543,5.992811
96.45134,91.81647,-0.3178526,0.9898543,5.986352
96.50198,90.67213,-0.3602295,0.9898543,5.986352
96.55041,91.43503,-0.3778861,0.9898543,5.986352
96.60109,96.39381,-0.381418,0.9900191,5.986352
96.65157,127.2909,-0.3778861,0.9898543,5.986352
96.70067,112.9231,-0.3655263,0.9898543,5.986352
96.75143,112.5417,-0.3619951,0.9896896,5.986352
96.80119,111.3974,-0.3496353,0.9898543,5.979893
96.85071,110.6345,-0.3355092,0.9900191,5.979893
96.90194,111.7788,-0.3302124,0.9896896,5.979893
96.95066,103.6413,-0.3196182,0.9896896,5.979893
97.00157,100.7169,-0.3107896,0.9896896,5.973434
97.051,98.6825,-0.2896012,0.9898543,5.973434
97.10115,97.9196,-0.2401613,0.9898543,5.973434
97.15247,97.66531,-0.1501101,0.9796425,5.973434
97.20136,96.52097,-0.08124798,0.9798071,5.966975
97.25156,94.10515,-0.001791013,0.9798071,5.966975
97.30106,92.96081,0.07590036,0.9798071,5.966975
97.35107,91.43503,0.1412306,0.9798071,5.966975
97.40234,89.14634,0.1889049,0.9798071,5.966975
97.45086,92.57936,0.2259844,0.9798071,5.960516
97.50204,118.5177,0.2895497,0.9798071,5.960516
97.55085,127.4181,0.3478189,0.9799718,5.960516
97.60085,115.8476,0.4043205,0.9798071,5.966975
97.65198,107.9643,0.4608234,0.9798071,5.960516
97.70081,105.5485,0.5190913,0.9798071,5.954056
97.75198,106.6929,0.5702968,0.9796425,5.954056
97.80085,109.4901,0.6232685,0.9798071,5.954056
97.85078,108.7272,0.6727078,0.9799718,5.947598
97.90206,97.66531,0.6921313,0.9798071,5.947598
97.95054,95.24948,0.7097886,0.9799718,5.947598
98.00185,95.12233,0.7380394,0.9798071,5.941138
98.0514,93.72369,0.7715876,0.9798071,5.947598
98.1013,93.46941,0.7874786,0.9798071,5.941138
98.15243,92.96081,0.8051358,0.9896896,5.941138
98.20118,90.67213,0.8227931,0.9898543,5.941138
98.25189,87.11198,0.8422153,0.9896896,5.934679
98.30148,89.0192,0.849279,0.9896896,5.934679
98.35056,118.5177,0.8634037,0.9896896,5.934679
98.40154,120.4249,0.8739986,0.9896896,5.92822
98.45065,102.497,0.8898896,0.9898543,5.92822
98.50158,97.66531,0.8757648,0.9898543,5.92822
98.55149,93.85085,0.8528102,0.9898543,5.921761
98.60156,99.95398,0.8280905,0.9896896,5.921761
98.65253,105.8028,0.8121982,0.9898543,5.921761
98.70105,105.0399,0.7892449,0.9898543,5.915301
98.75206,91.43503,0.7698213,0.9896896,5.915301
98.80058,90.16354,0.746868,0.9796425,5.915301
98.8513,89.14634,0.7345082,0.9798071,5.908842
98.90234,89.40065,0.7186159,0.9799718,5.915301
98.95097,88.38345,0.7186159,0.9798071,5.908842
99.00219,86.85767,0.7115535,0.9796425,5.908842
99.05097,91.68932,0.7398043,0.9799718,5.902383
99.10081,108.4729,0.77865,0.9799718,5.902383
99.15197,115.8476,0.8121982,0.9798071,5.895924
99.20076,104.5313,0.8316218,0.9796425,5.889464
99.25153,97.66531,0.8563414,0.9796425,5.895924
99.30105,94.35944,0.8739986,0.9799718,5.889464
99.35094,101.2255,0.8792961,0.9798071,5.889464
99.40219,104.4042,0.8881246,0.9798071,5.883006
99.45082,103.2598,0.9146093,0.9798071,5.883006
99.50147,95.63092,0.9128443,0.9798071,5.876546
99.55157,89.0192,0.9234379,0.9798071,5.876546
99.60093,87.23911,0.937564,0.9798071,5.876546
99.65165,86.85767,0.9552212,0.9798071,5.870087
99.70063,87.23911,0.9622836,0.9798071,5.870087
99.75204,85.96764,0.9658148,0.9796425,5.870087
99.80081,95.63092,0.9499238,0.9798071,5.863628
99.85047,133.7755,0.9658148,0.9799718,5.857169
99.9015,128.5624,0.95169,0.9798071,5.857169
99.95097,104.5313,0.9499238,0.9798071,5.857169
100.0018,101.2255,0.95169,0.9798071,5.85071
100.0504,98.55534,0.9728784,0.9798071,5.844251
100.1007,100.4626,0.9499238,0.9798071,5.844251
100.1515,103.8956,0.9234379,0.9798071,5.844251
100.2013,106.3114,0.8828272,0.9798071,5.837791
100.2523,92.96081,0.8369192,0.9796425,5.837791
100.3012,89.40065,0.762759,0.9798071,5.831332
100.3506,87.87486,0.6621143,0.9798071,5.831332
100.4014,87.87486,0.5402797,0.9798071,5.824873
100.451,87.49342,0.3743034,0.9798071,5.824873
100.5025,87.23911,0.2454079,0.9799718,5.818414
100.551,93.46941,0.1871387,0.9798071,5.818414
100.6007,120.9335,0.1447618,0.9798071,5.811954
100.6519,115.4661,0.1112136,0.9796425,5.811954
100.7012,105.2942,0.08472899,0.9799718,5.811954
100.7524,101.7341,0.04764889,0.9798071,5.805496
100.801,99.31824,-0.005322854,0.9799718,5.805496
100.8509,105.93,-0.03887111,0.9798071,5.799037
100.9015,106.1843,-0.05829395,0.9798071,5.799037
100.9512,96.77527,-0.08831101,0.9796425,5.792577
101.0024,92.07076,-0.09890523,0.9796425,5.792577
101.0512,89.14634,-0.09537338,0.9799718,5.786119
101.1007,88.89205,-0.07771614,0.9798071,5.786119
101.1517,88.7649,0.05471127,0.9796425,5.779659
101.2011,87.62056,0.1465281,0.9798071,5.779659
101.2521,86.47623,0.2136246,0.9798071,5.779659
101.3007,98.9368,0.305442,0.9798071,5.7732
101.3504,136.5728,0.3990244,0.9798071,5.7732
101.4017,119.4077,0.4749495,0.9798071,5.766741
101.4505,104.7856,0.5844229,0.9798071,5.760282
101.5025,101.2255,0.6691766,0.9798071,5.760282
101.5507,98.80965,0.7150847,0.9798071,5.760282
101.6007,99.19109,0.7592278,0.9798071,5.753822
101.6519,106.4386,0.803371,0.9798071,5.753822
101.7005,98.55534,0.8404503,0.9796425,5.753822
101.7522,93.46941,0.881061,0.9798071,5.753822
101.8009,90.03638,0.8969533,0.9798071,5.747364
101.8512,89.40065,0.9322665,0.9798071,5.740904
101.9018,89.14634,0.937564,0.9798071,5.740904
101.9509,88.38345,0.9410951,0.9798071,5.740904
102.0022,88.12916,0.9463925,0.9798071,5.740904
102.0507,102.1155,0.9711122,0.9798071,5.734445
102.1005,125.8923,0.9746433,0.9798071,5.727985
102.1514,104.5313,0.9622836,0.9799718,5.727985
102.2007,99.69969,0.9693459,0.9796425,5.727985
102.2519,94.99519,0.9746433,0.9798071,5.721527
102.3012,98.9368,0.9605186,0.9798071,5.721527
102.3517,106.4386,0.9322665,0.9798071,5.715067
102.4022,106.0571,0.8863584,0.9798071,5.715067
102.4507,93.978,0.8528102,0.9798071,5.715067
102.5024,91.30788,0.7910098,0.9799718,5.715067
102.5512,89.14634,0.7415705,0.9798071,5.708608
102.6012,88.7649,0.6956625,0.9798071,5.702149
102.6526,88.7649,0.6409258,0.9798071,5.702149
102.7005,88.12916,0.5702968,0.9798071,5.702149
102.7519,106.0571,0.4890742,0.9798071,5.702149
102.8005,127.4181,0.4166803,0.9798071,5.69569
102.8512,110.253,0.3778359,0.9798071,5.69569
102.9022,102.7513,0.3354591,0.9798071,5.68923
102.9509,98.1739,0.2966134,0.9798071,5.68923
103.002,96.64812,0.2683612,0.9796425,5.68923
103.0515,105.1671,0.2489391,0.9798071,5.68923
103.1014,106.1843,0.2206882,0.9796425,5.682772
103.1523,94.35944,0.1924361,0.9798071,5.682772
103.2009,91.05358,0.1783114,0.9798071,5.682772
103.2527,88.63776,0.1677165,0.9798071,5.682772
103.301,88.89205,0.1588879,0.9796425,5.682772
103.351,88.00201,0.1571229,0.9798071,5.676312
103.4023,88.12916,0.1394657,0.9798071,5.676312
103.4514,88.38345,0.1235734,0.9798071,5.669853
103.5016,122.205,0.1147447,0.9796425,5.663394
103.5512,137.0814,0.1147447,0.9798071,5.669853
103.6012,120.6792,0.1200422,0.9798071,5.663394
103.6522,104.0227,0.1235734,0.9798071,5.663394
103.7009,101.9884,0.1271059,0.9798071,5.663394
103.7522,102.3698,0.130637,0.9798071,5.656935
103.8008,108.0915,0.1288708,0.9798071,5.663394
103.8505,107.0743,0.1288708,0.9798071,5.656935
103.902,96.26666,0.1288708,0.9798071,5.650476
103.9511,92.19792,0.1271059,0.9798071,5.650476
104.0015,91.56216,0.1271059,0.9796425,5.650476
104.0506,89.40065,0.1253396,0.9798071,5.650476
104.1005,89.14634,0.1253396,0.9799718,5.644017
104.1522,88.7649,0.1200422,0.9796425,5.644017
104.2009,88.00201,0.10062,0.9798071,5.637558
104.252,97.9196,0.08472899,0.9798071,5.637558
104.3016,136.6999,0.07413411,0.9799718,5.637558
104.3512,123.095,0.07236787,0.9798071,5.637558
104.4019,105.93,0.07413411,0.9796425,5.631098
104.4508,103.0055,0.07413411,0.9798071,5.631098
104.5019,100.3354,0.0776653,0.9799718,5.631098
104.5514,107.4557,0.0776653,0.9798071,5.631098
104.6012,108.0915,0.07236787,0.9798071,5.631098
104.6524,107.5829,0.07413411,0.9798071,5.631098
104.7011,94.35944,0.07943155,0.9798071,5.62464
104.7516,92.32506,0.0970888,0.9798071,5.61818
104.8006,91.05358,0.1182772,0.9796425,5.61818
104.8507,91.05358,0.1465281,0.9799718,5.61818
104.9019,90.03638,0.1747789,0.9798071,5.61818
104.9511,88.25631,0.2206882,0.9798071,5.61818
105.0021,86.73053,0.2701275,0.9798071,5.61818
105.051,85.84048,0.3195668,0.9796425,5.611721
105.1012,106.6929,0.3848983,0.9798071,5.611721
105.1522,133.7755,0.4343376,0.9798071,5.611721
105.2008,108.7272,0.4908405,0.9798071,5.611721
105.2516,103.0055,0.557937,0.9799718,5.605262
105.3014,100.7169,0.6144399,0.9798071,5.605262
105.3507,101.8612,0.6515194,0.9796425,5.605262
105.402,108.4729,0.6868339,0.9799718,5.605262
105.4513,105.5485,0.7168509,0.9798071,5.605262
105.5018,96.64812,0.7380394,0.9798071,5.605262
105.5513,92.57936,0.7662902,0.9798071,5.598803
105.601,92.19792,0.7892449,0.9798071,5.598803
105.6523,90.67213,0.8210269,0.9798071,5.592343
105.7009,90.29069,0.849279,0.9798071,5.592343
105.7523,90.41783,0.8616388,0.9798071,5.592343
105.8012,88.38345,0.8616388,0.9896896,5.592343
105.8516,87.23911,0.8792961,0.9896896,5.592343
105.9027,106.0571,0.8792961,0.9898543,5.592343
105.9516,122.4593,0.8722324,0.9898543,5.592343
106.0024,105.6757,0.8598726,0.9898543,5.592343
106.0512,98.6825,0.8563414,0.9898543,5.579425
106.1013,94.86804,0.8263243,0.9896896,5.579425
106.1521,102.2427,0.7998384,0.9898543,5.579425
106.2014,106.3114,0.776885,0.9898543,5.579425
106.2522,105.6757,0.762759,0.9896896,5.579425
106.3008,93.46941,0.7433368,0.9898543,5.579425
106.3509,90.67213,0.7256796,0.9898543,5.579425
106.4026,89.0192,0.7080223,0.9896896,5.579425
106.4511,88.7649,0.7044911,0.9896896,5.579425
106.5024,89.0192,0.6797715,0.9898543,5.572966
106.5511,87.87486,0.6568168,0.9896896,5.572966
106.6009,86.73053,0.6356283,0.9896896,5.572966
106.6521,103.7684,0.6162062,0.9896896,5.572966
106.701,128.3081,0.5861891,0.9896896,5.566507
106.7523,104.7856,0.5632344,0.9896896,5.566507
106.8016,98.6825,0.5438122,0.9898543,5.566507
106.8514,95.24948,0.5208576,0.9898543,5.566507
106.9027,101.2255,0.4837781,0.9896896,5.566507
106.9509,104.1499,0.4678858,0.9896896,5.560048
107.0027,105.4214,0.4431662,0.9896896,5.560048
107.0517,92.96081,0.4131491,0.9896896,5.560048
107.1015,89.14634,0.3778359,0.9896896,5.560048
107.1515,88.25631,0.3195668,0.9898543,5.560048
107.2009,87.49342,0.2665963,0.9898543,5.553588
107.2521,88.00201,0.2171557,0.9896896,5.553588
107.3014,87.11198,0.1412306,0.9896896,5.553588
107.3513,85.20473,0.06354055,0.9896896,5.553588
107.4021,87.62056,-0.02651129,0.9896896,5.553588
107.4512,121.6964,-0.09360779,0.9898543,5.553588
107.5016,129.1982,-0.1218593,0.9898543,5.553588
107.5511,104.1499,-0.1324535,0.9898543,5.553588
107.6015,102.6241,-0.1501101,0.9898543,5.547129
107.6526,98.80965,-0.1712985,0.9896896,5.547129
107.7005,104.5313,-0.1801271,0.9896896,5.547129
107.7517,106.6929,-0.1854246,0.9898543,5.547129
107.801,105.93,-0.1907214,0.9896896,5.54067
107.8508,92.96081,-0.1924876,0.9896896,5.54067
107.9019,90.29069,-0.1889558,0.9896896,5.54067
107.9517,89.2735,-0.1854246,0.9898543,5.54067
108.0027,89.14634,-0.176596,0.9898543,5.54067
108.0517,88.7649,-0.1342191,0.9896896,5.54067
108.1011,86.47623,-0.1077332,0.9896896,5.534211
108.1524,89.0192,-0.02651129,0.9898543,5.534211
108.2007,114.4489,0.08649392,0.9898543,5.54067
108.2525,122.5864,0.1747789,0.9896896,5.534211
108.3008,112.9231,0.2683612,0.9898543,5.534211
108.3508,102.3698,0.3460526,0.9898543,5.534211
108.4016,100.2083,0.4166803,0.9896896,5.534211
108.4515,99.95398,0.4749495,0.9898543,5.534211
108.5016,105.6757,0.542046,0.9896896,5.527751
108.5509,106.6929,0.6073775,0.9896896,5.527751
108.6014,95.50377,0.6479882,0.9896896,5.527751
108.6517,91.68932,0.6886001,0.9896896,5.527751
108.7014,90.54498,0.7115535,0.9896896,5.521293
108.7526,89.90925,0.7415705,0.9898543,5.527751
108.8011,89.5278,0.7539304,0.9896896,5.527751
108.8511,89.40065,0.7751188,0.9896896,5.521293
108.9017,94.48659,0.7910098,0.9898543,5.527751
108.9514,119.662,0.8157308,0.9896896,5.521293
109.0026,126.4009,0.8298555,0.9898543,5.521293
109.0514,105.2942,0.8510439,0.9896896,5.521293
109.1014,98.42819,0.8510439,0.9896896,5.521293
109.1526,96.01237,0.8439816,0.9896896,5.521293
109.2012,105.6757,0.8280905,0.9896896,5.514833
109.2519,107.2015,0.8016047,0.9896896,5.514833
109.3011,106.0571,0.7804163,0.9896896,5.514833
109.3511,95.24948,0.762759,0.9896896,5.514833
109.4019,91.30788,0.7398043,0.9896896,5.514833
109.4517,91.56216,0.7256796,0.9896896,5.514833
109.5017,90.16354,0.7009599,0.9898543,5.514833
109.5514,89.2735,0.6727078,0.9898543,5.508374
109.6006,89.65494,0.644457,0.9898543,5.508374
109.6524,104.5313,0.6215023,0.9898543,5.508374
109.701,128.3081,0.5950177,0.9898543,5.514833
109.7515,105.4214,0.5632344,0.9898543,5.508374
109.8011,102.6241,0.5402797,0.9896896,5.508374
109.8514,98.42819,0.5314511,0.9898543,5.508374
109.9026,106.9472,0.4890742,0.9898543,5.501915
109.9515,108.0915,0.4625897,0.9898543,5.501915
110.0021,107.9643,0.4414012,0.9898543,5.501915
110.0517,96.39381,0.423744,0.9896896,5.501915
110.1017,93.72369,0.4060867,0.9896896,5.501915
110.1525,92.83366,0.3866645,0.9898543,5.501915
110.2009,92.19792,0.3760697,0.9896896,5.501915
110.2517,92.07076,0.3442877,0.9896896,5.495456
110.3014,91.18073,0.2930822,0.9896896,5.495456
110.3516,106.3114,0.2683612,0.9898543,5.495456
110.4016,136.8271,0.2524702,0.9898543,5.495456
110.4515,123.6036,0.2312818,0.9898543,5.495456
110.5027,109.4901,0.2083271,0.9898543,5.495456
110.5514,108.7272,0.1906712,0.9898543,5.495456
110.6013,105.5485,0.1800763,0.9896896,5.495456
110.6527,107.9643,0.1694827,0.9898543,5.495456
110.7013,111.5245,0.1571229,0.9898543,5.488997
110.752,110.1259,0.1447618,0.9896896,5.488997
110.8018,98.04675,0.130637,0.9898543,5.488997
110.8507,95.63092,0.116511,0.9898543,5.488997
110.9023,94.99519,0.09532255,0.9898543,5.495456
110.9511,94.99519,0.08296274,0.9898543,5.488997
111.0021,92.96081,0.05118008,0.9896896,5.482538
111.0513,91.05358,-2.541831e-05,0.9898543,5.482538
111.1013,106.4386,-0.04240229,0.9898543,5.482538
111.1522,140.0058,-0.06005954,0.9898543,5.488997
111.2009,128.5624,-0.07948238,0.9896896,5.482538
111.2525,111.0159,-0.08301357,0.9898543,5.476079
111.3014,109.4901,-0.0918422,0.9898543,5.482538
111.351,107.0743,-0.09537338,0.9896896,5.482538
111.402,108.7272,-0.09713899,0.9898543,5.482538
111.4516,111.5245,-0.104202,0.9898543,5.476079
111.5023,111.2702,-0.1094994,0.9900191,5.482538
111.5513,98.42819,-0.1147962,0.9898543,5.476079
111.6013,97.15671,-0.1183274,0.9898543,5.476079
111.6519,95.63092,-0.111265,0.9896896,5.482538
111.7012,95.24948,-0.1006708,0.9896896,5.476079
111.7525,94.10515,-0.06888817,0.9898543,5.476079
111.8008,92.57936,-0.02297945,0.9896896,5.476079
111.851,90.29069,0.01586558,0.9898543,5.476079
111.9019,94.48659,0.08649392,0.9896896,5.476079
111.9516,134.6656,0.1677165,0.9896896,5.469619
112.0027,135.3013,0.2524702,0.9896896,5.469619
112.0509,109.4901,0.3389902,0.9896896,5.469619
112.1011,107.9643,0.4096179,0.9896896,5.469619
112.1522,105.1671,0.4661209,0.9898543,5.469619
112.2017,109.8716,0.526155,0.9898543,5.469619
112.2528,111.3974,0.6003138,0.9896896,5.469619
112.3011,110.7616,0.6426907,0.9898543,5.469619
112.3514,98.55534,0.676239,0.9898543,5.469619
112.4026,96.52097,0.6974275,0.9896896,5.463161
112.4514,94.99519,0.732742,0.9898543,5.469619
112.502,94.61374,0.7556966,0.9898543,5.469619
112.5515,94.10515,0.7733539,0.9896896,5.463161
112.6011,93.59654,0.7892449,0.9898543,5.463161
112.6518,91.56216,0.8016047,0.9898543,5.463161
112.7013,88.7649,0.8016047,0.9898543,5.463161
112.7521,108.7272,0.7980735,0.9898543,5.463161
112.8009,132.8855,0.776885,0.9896896,5.456701
112.8506,111.2702,0.7733539,0.9898543,5.463161
112.9026,104.5313,0.7380394,0.9898543,5.463161
112.9511,101.2255,0.7097886,0.9898543,5.456701
113.0022,100.9712,0.6780052,0.9898543,5.456701
113.0508,109.7444,0.6550506,0.9898543,5.456701
113.1016,109.7444,0.6179711,0.9896896,5.456701
113.1518,108.6001,0.5508746,0.9898543,5.456701
113.2014,95.12233,0.485543,0.9896896,5.456701
113.2527,94.10515,0.4361038,0.9900191,5.456701
113.3016,92.83366,0.3990244,0.9898543,5.456701
113.3508,92.45221,0.3690073,0.9898543,5.450242
113.4025,91.30788,0.3230979,0.9896896,5.450242
113.4512,89.14634,0.2648301,0.9898543,5.450242
113.5025,93.59654,0.2295156,0.9900191,5.450242
113.551,110.1259,0.1942024,0.9896896,5.450242
113.6008,126.7823,0.1783114,0.9896896,5.450242
113.6521,106.9472,0.1730139,0.9898543,5.443783
113.7013,104.1499,0.1624191,0.9898543,5.443783
113.7525,100.9712,0.1588879,0.9898543,5.450242
113.8011,105.1671,0.1535904,0.9896896,5.443783
113.8507,107.5829,0.1482943,0.9898543,5.443783
113.9026,107.71,0.1376994,0.9898543,5.443783
113.9513,95.63092,0.1288708,0.9896896,5.443783
114.0023,93.08795,0.1235734,0.9896896,5.450242
114.0511,91.05358,0.1182772,0.9898543,5.443783
114.1017,90.79928,0.1112136,0.9896896,5.443783
114.1528,90.54498,0.1041512,0.9898543,5.443783
114.2013,90.16354,0.08826017,0.9896896,5.443783
114.2517,87.62056,0.04411705,0.9896896,5.443783
114.3013,94.99519,0.0105688,0.9896896,5.437324
114.3512,123.4765,-0.01415083,0.9898543,5.437324
114.4017,135.5556,-0.02474505,0.9896896,5.437324
114.4513,108.0915,-0.02474505,0.9898543,5.437324
114.5027,105.6757,-0.03180807,0.9900191,5.437324
114.551,102.8784,-0.03533926,0.9898543,5.437324
114.6007,102.7513,-0.03887111,0.9896896,5.437324
114.6527,108.6001,-0.04593348,0.9900191,5.437324
114.7018,108.4729,-0.05123092,0.9898543,5.430864
114.7517,96.26666,-0.05123092,0.9898543,5.437324
114.8011,93.978,-0.04416789,0.9900191,5.430864
114.8508,91.68932,-0.02827688,0.9898543,5.430864
114.9027,92.07076,0.005271365,0.9898543,5.430864
114.9511,91.18073,0.03528843,0.9896896,5.430864
115.002,90.29069,0.08826017,0.9896896,5.430864
115.0507,87.87486,0.1200422,0.9896896,5.430864
115.1014,90.16354,0.1624191,0.9898543,5.430864
115.1517,123.3493,0.2259844,0.9898543,5.424405
115.2012,135.4285,0.2930822,0.9896896,5.430864
115.2528,107.71,0.3743034,0.9896896,5.430864
115.3009,103.8956,0.4219777,0.9896896,5.424405
115.3507,101.6069,0.4749495,0.9898543,5.424405
115.4017,102.6241,0.5296862,0.9896896,5.424405
115.4519,107.5829,0.5914853,0.9898543,5.424405
115.5021,107.71,0.6267998,0.9896896,5.424405
115.5515,95.88522,0.6568168,0.9896896,5.424405
115.6011,94.74089,0.6815364,0.9896896,5.424405
115.6522,92.83366,0.7027249,0.9898543,5.424405
115.7012,91.56216,0.7239133,0.9898543,5.424405
115.752,91.05358,0.7415705,0.9896896,5.417946
115.8014,90.41783,0.7451017,0.9896896,5.417946
115.851,88.25631,0.7556966,0.9898543,5.417946
115.9018,92.07076,0.7503992,0.9898543,5.417946
115.9515,130.2153,0.7433368,0.9898543,5.424405
116.0025,130.724,0.7274445,0.9898543,5.417946
116.0518,104.9128,0.7203821,0.9898543,5.417946
116.1011,98.80965,0.7044911,0.9898543,5.417946
116.1519,95.24948,0.6833027,0.9896896,5.417946
116.2017,104.4042,0.6621143,0.9896896,5.411487
116.2517,105.5485,0.6532856,0.9898543,5.411487
116.3011,106.3114,0.6250335,0.9898543,5.411487
116.3516,94.2323,0.5897203,0.9896896,5.411487
116.4028,90.29069,0.5544058,0.9898543,5.411487
116.4516,88.38345,0.5367485,0.9896896,5.411487
116.5021,88.38345,0.5032003,0.9896896,5.411487
116.5515,88.25631,0.453761,0.9898543,5.411487
116.6011,87.74771,0.4025556,0.9898543,5.411487
116.6523,87.11198,0.3743034,0.9898543,5.411487
116.7008,99.82683,0.3442877,0.9896896,5.405028
116.7518,123.2222,0.2983783,0.9896896,5.411487
116.8018,112.9231,0.2665963,0.9898543,5.405028
116.8511,102.2427,0.2524702,0.9900191,5.405028
116.9018,98.42819,0.2277506,0.9898543,5.405028
116.9508,97.9196,0.2047959,0.9898543,5.405028
117.0023,105.1671,0.1906712,0.9898543,5.405028
117.0511,106.3114,0.1747789,0.9896896,5.405028
117.1009,94.10515,0.1624191,0.9898543,5.405028
117.1518,91.05358,0.1553567,0.9898543,5.405028
117.2017,89.0192,0.1482943,0.9898543,5.405028
117.2521,88.7649,0.1394657,0.9896896,5.405028
117.3017,89.0192,0.132402,0.9898543,5.405028
117.3509,87.87486,0.1182772,0.9896896,5.405028
117.4026,86.22193,0.08826017,0.9898543,5.398569
117.4518,93.72369,0.06000805,0.9896896,5.398569
117.5019,134.157,0.04764889,0.9900191,5.398569
117.5508,123.9851,0.03705467,0.9896896,5.398569
117.6008,111.0159,0.03882027,0.9898543,5.398569
117.6519,101.6069,0.03705467,0.9898543,5.398569
117.7018,99.44539,0.03882027,0.9896896,5.392109
117.7528,103.6413,0.03882027,0.9898543,5.392109
117.8015,106.6929,0.03352283,0.9898543,5.392109
117.8512,107.5829,0.03352283,0.9898543,5.392109
117.9022,94.99519,0.03175724,0.9900191,5.398569
117.9511,91.43503,0.03175724,0.9898543,5.392109
118.0021,90.79928,0.03175724,0.9896896,5.392109
118.0508,89.90925,0.02292861,0.9896896,5.392109
118.1008,89.5278,0.02469421,0.9898543,5.392109
118.1521,88.63776,-0.007088448,0.9898543,5.392109
118.2017,86.98483,-0.03887111,0.9896896,5.392109
118.2526,101.0983,-0.05829395,0.9898543,5.392109
118.3013,134.5384,-0.05829395,0.9898543,5.392109
118.3517,110.253,-0.0406367,0.9898543,5.385651
118.4026,101.7341,-0.01944826,0.9896896,5.392109
118.451,100.0811,0.0105688,0.9896896,5.385651
118.5021,99.82683,0.04941449,0.9896896,5.392109
118.5508,105.5485,0.09355631,0.9898543,5.392109
118.6007,107.9643,0.1500592,0.9898543,5.385651
118.6527,97.15671,0.2136246,0.9896896,5.385651
118.701,92.96081,0.2736587,0.9898543,5.385651
118.7523,91.43503,0.3548812,0.9898543,5.385651
118.8008,90.41783,0.4060867,0.9896896,5.385651
118.8508,89.90925,0.453761,0.9898543,5.385651
118.9017,89.0192,0.4979029,0.9896896,5.385651
118.9516,88.00201,0.5314511,0.9896896,5.379191
119.0023,97.02956,0.5791254,0.9896896,5.385651
119.0518,130.9782,0.6215023,0.9896896,5.379191
119.1013,125.3837,0.6532856,0.9898543,5.385651
119.1523,106.0571,0.676239,0.9896896,5.379191
119.201,100.3354,0.6903651,0.9898543,5.379191
119.252,97.66531,0.7097886,0.9898543,5.379191
119.3011,104.1499,0.7221484,0.9898543,5.379191
119.3516,107.5829,0.732742,0.9898543,5.379191
119.4026,106.1843,0.746868,0.9898543,5.379191
119.4511,94.10515,0.7592278,0.9898543,5.379191
119.5028,91.56216,0.7574615,0.9898543,5.379191
119.5517,91.18073,0.746868,0.9898543,5.379191
119.6018,91.18073,0.730977,0.9898543,5.379191
119.6517,90.67213,0.7186159,0.9896896,5.372732
119.7016,90.41783,0.6833027,0.9898543,5.372732
119.7523,91.18073,0.6568168,0.9896896,5.372732
119.8011,127.7995,0.6197374,0.9898543,5.372732
119.8511,124.748,0.5861891,0.9896896,5.372732
119.9022,106.0571,0.5367485,0.9898543,5.372732
119.9515,99.19109,0.4961379,0.9898543,5.372732
120.0026,95.50377,0.4272752,0.9898543,5.372732
120.0512,104.7856,0.3901957,0.9898543,5.372732
120.1012,107.9643,0.3548812,0.9898543,5.366273
120.1529,106.4386,0.2930822,0.9898543,5.366273
120.2016,94.61374,0.2507053,0.9896896,5.372732
120.2517,91.05358,0.2047959,0.9896896,5.366273
120.3017,90.79928,0.1624191,0.9900191,5.366273
120.3518,90.41783,0.1271059,0.9898543,5.366273
120.4017,90.41783,0.08826017,0.9896896,5.366273
120.4516,89.78209,0.003505771,0.9896896,5.366273
120.5025,90.54498,-0.07771614,0.9900191,5.366273
120.5508,104.1499,-0.1094994,0.9896896,5.366273
120.6013,130.4697,-0.1377503,0.9896896,5.366273
120.6528,109.1087,-0.1448133,0.9898543,5.366273
120.7016,103.387,-0.1483445,0.9898543,5.366273
120.7523,101.0983,-0.1501101,0.9898543,5.366273
120.8008,104.277,-0.1483445,0.9898543,5.359814
120.8517,108.7272,-0.1377503,0.9898543,5.359814
120.9021,109.2358,-0.1059676,0.9900191,5.359814
120.9517,97.28386,-0.0406367,0.9898543,5.359814
121.0028,94.10515,0.05294568,0.9898543,5.359814
121.0517,92.57936,0.1341682,0.9898543,5.359814
121.1018,91.94361,0.2100934,0.9898543,5.359814
121.1525,92.19792,0.2913159,0.9898543,5.359814
121.2008,90.41783,0.35135,0.9896896,5.359814
121.2519,92.32506,0.4113842,0.9898543,5.359814
121.3008,115.5933,0.4731832,0.9900191,5.359814
121.3512,125.0023,0.5508746,0.9896896,5.359814
121.4021,115.7204,0.6215023,0.9898543,5.359814
121.4507,104.0227,0.6709428,0.9898543,5.359814
121.5022,103.0055,0.7009599,0.9898543,5.353354
121.5517,103.1327,0.7274445,0.9898543,5.359814
121.6012,108.4729,0.7556966,0.9898543,5.353354
121.6519,110.253,0.7892449,0.9898543,5.353354
121.7019,99.19109,0.8245594,0.9898543,5.353354
121.7519,95.88522,0.8563414,0.9898543,5.353354
121.8016,94.74089,0.8704674,0.9896896,5.353354
121.8511,93.2151,0.8916559,0.9900191,5.353354
121.902,93.72369,0.8934208,0.9896896,5.346895
121.9516,92.7065,0.8987182,0.9900191,5.353354
122.0027,116.7376,0.8987182,0.9898543,5.346895
122.0513,131.7411,0.9075469,0.9898543,5.346895
122.1015,113.9403,0.8951871,0.9898543,5.346895
122.1523,103.387,0.8792961,0.9898543,5.346895
122.2011,99.06393,0.8404503,0.9898543,5.346895
122.2523,104.6585,0.8016047,0.9900191,5.346895
122.302,108.9815,0.7751188,0.9898543,5.346895
122.3517,110.5073,0.7433368,0.9898543,5.346895
122.4022,98.42819,0.7133197,0.9896896,5.346895
122.4509,96.13953,0.6921313,0.9898543,5.340436
122.5018,95.37663,0.660348,0.9898543,5.346895
122.5518,94.2323,0.6232685,0.9900191,5.340436
122.6016,94.2323,0.5614682,0.9898543,5.340436
122.6527,94.35944,0.4926067,0.9898543,5.340436
122.701,130.8511,0.4343376,0.9898543,5.340436
122.7525,113.686,0.4043205,0.9898543,5.340436
122.8015,111.5245,0.3778359,0.9896896,5.340436
122.8515,107.0743,0.3460526,0.9898543,5.340436
122.9022,104.6585,0.3019095,0.9900191,5.346895
122.9508,113.5589,0.2612989,0.9898543,5.340436
123.0022,113.4317,0.2277506,0.9896896,5.340436
123.0518,102.3698,0.1853737,0.9900191,5.340436
123.1009,100.0811,0.1588879,0.9898543,5.333977
123.1518,99.31824,0.132402,0.9798071,5.340436
123.2013,98.55534,0.1129798,0.9798071,5.333977
123.2518,97.79247,0.07060292,0.9798071,5.340436
123.3012,97.02956,0.008803206,0.9798071,5.333977
123.3508,100.0811,-0.03710551,0.9798071,5.333977
123.4028,137.7171,-0.06005954,0.9798071,5.333977
123.4514,122.0779,-0.06712192,0.9799718,5.333977
123.5018,117.2462,-0.07241935,0.9798071,5.333977
123.5515,116.8647,-0.08301357,0.9799718,5.333977
123.601,114.5761,-0.0900766,0.9798071,5.333977
123.6528,115.7204,-0.0918422,0.9798071,5.333977
123.701,116.4833,-0.1024364,0.9798071,5.333977
123.7521,107.2015,-0.1218593,0.9799718,5.327518
123.8007,105.1671,-0.1236249,0.9798071,5.327518
123.8517,103.387,-0.1236249,0.9799718,5.333977
123.9028,103.0055,-0.1289216,0.9799718,5.333977
123.9515,101.7341,-0.1200937,0.9798071,5.333977
124.0024,99.95398,-0.1377503,0.9798071,5.333977
124.051,98.6825,-0.1607043,0.9799718,5.327518
124.1009,120.0435,-0.1660017,0.9799718,5.327518
124.152,142.6759,-0.1624705,0.9798071,5.327518
124.2007,126.6552,-0.1518763,0.9798071,5.327518
124.2524,118.3905,-0.1395159,0.9798071,5.327518
124.3011,118.1362,-0.127156,0.9798071,5.327518
124.3514,114.9575,-0.09360779,0.9798071,5.327518
124.4025,116.4833,-0.05299651,0.9799718,5.327518
124.4511,117.2462,-2.541831e-05,0.9798071,5.327518
124.5024,107.71,0.05824311,0.9799718,5.327518
124.551,105.0399,0.1288708,0.9799718,5.321059
124.6008,104.7856,0.1977336,0.9799718,5.321059
124.6518,103.7684,0.2630651,0.9799718,5.327518
124.7008,102.1155,0.3336928,0.9798071,5.321059
124.7526,101.0983,0.4007893,0.9799718,5.321059
