t_sec,O11_muM,O12_muM,O21_muM,O23_muM,O32_muM,O33_muM,O34_muM,O42_muM,O44_muM,O45_muM,O53_muM,O54_muM,O56_muM,O64_muM,O65_muM,O66_muM,O75_muM,O77_muM,O86_muM,O87_muM,D11_muM,D12_muM,D21_muM,D23_muM,D32_muM,D33_muM,D34_muM,D42_muM,D44_muM,D45_muM,D53_muM,D54_muM,D56_muM,D64_muM,D65_muM,D66_muM,D75_muM,D77_muM,D86_muM,D87_muM
0.03705925,0.4327575,0.5757505,-0.2286012,-0.4982446,0.4295155,-0.1027199,-2.308095,1.826415,0.4912807,3.525927,-0.4837893,-2.455462,0.02840972,-2.145097,3.840705,-0.1362944,2.619138,-3.532662,1.286075,-0.2547397,0.720533,0.9859584,0.7691417,0.945329,0.978219,0.5883113,-0.0546725,0.6751957,1.327869,0.4097186,0.5798482,0.3747891,0.3517152,0.09365035,-0.2552034,0.2916127,1.54044,-1.001474,1.191434,1.094121
0.1650585,0.52885,0.6651889,-0.1566614,-0.4822602,0.4150817,-0.06503294,-2.299797,1.053455,1.258988,0.9332381,-0.5045217,-2.474025,0.04210626,-2.205367,0.1241685,-0.1386676,2.803735,-3.589949,1.283129,-0.2858834,0.7207921,0.9792717,0.7738693,0.9501843,0.979718,0.5983249,-0.04241992,1.184779,0.731342,4.081729,0.5878568,0.3744617,0.3521335,0.1026353,3.605952,0.2980148,1.388137,-1.009729,1.191566,1.087608
0.2930578,0.5428049,0.7257795,-0.1566439,-0.4941917,0.5280513,-0.07615625,-2.298685,0.9453768,1.107121,3.544126,-0.5568621,-2.494416,0.03522033,-2.263149,2.238169,-0.1767147,2.726479,-3.801132,1.227853,-0.3986494,0.724436,0.9735305,0.7752535,0.9456661,0.9617298,0.5994172,-0.04660596,1.335882,0.6888864,2.307113,0.5846398,0.3747019,0.3563961,0.09100685,0.7067534,0.297801,1.283684,-1.032471,1.191426,1.095873
0.4210571,0.4491425,0.6898307,-0.2921708,-0.6470543,0.4522387,-0.2030282,-2.453285,1.89363,1.50355,6.060279,-0.7195871,-2.64265,-0.06997807,-2.473998,1.966252,-0.2929471,2.347767,-4.257039,1.126839,-0.6864988,0.7166418,0.9775539,0.7714233,0.9426981,0.985507,0.5901177,-0.05462277,0.3073884,0.549569,0.6537462,0.5728396,0.3720767,0.3492147,0.08778445,1.161465,0.2962177,1.546316,-1.061635,1.198633,1.101868
0.5490564,0.2691273,0.5302443,-0.4346525,-0.8562185,0.2270977,-0.3922342,-2.651947,2.309274,1.884267,1.920221,-0.9582806,-2.842577,-0.1959782,-2.688437,1.590439,-0.4234883,2.284461,-4.618414,1.070094,-0.816864,0.6992388,0.9929416,0.7655424,0.9215412,1.003146,0.5771709,-0.06255905,-0.4035207,0.3682918,1.401695,0.5699887,0.3652052,0.3441868,0.08186518,2.865448,0.291416,1.45304,-1.082335,1.195085,1.063598
0.6770557,0.2736487,0.4616047,-0.3791459,-0.7571257,0.2210364,-0.2845341,-2.58978,1.965487,0.9054071,8.138945,-0.6046035,-2.587114,-0.040307,-2.254,3.514177,-0.1800252,2.27577,-3.632358,1.316366,-0.2372242,0.7117085,0.9665031,0.7625296,0.9103591,0.9936818,0.5815852,-0.05708858,0.009579352,0.8571177,-2.418661,0.580405,0.3546608,0.3507352,0.09078185,0.6166139,0.289483,1.675114,-1.003767,1.19316,1.068797
0.805055,0.5927114,0.5771798,-0.1121027,-0.5079697,0.4374157,-0.01217793,-2.292771,2.441725,0.5277697,3.588408,-0.5465478,-2.509681,0.02347463,-2.213288,-1.983613,-0.1175057,2.532109,-3.717407,1.30448,-0.3210682,0.7378348,0.9884938,0.7660857,0.9162566,0.890968,0.6246557,-0.04849439,-0.7104678,1.024185,1.75886,0.5920612,0.3411322,0.3515395,0.08399537,3.021667,0.3048817,1.535058,-1.015461,1.188969,1.095465
0.9330542,0.543667,0.629773,-0.1094347,-0.558667,0.3384085,-0.03583977,-2.300781,2.220076,0.9177203,4.032476,-0.5496787,-2.534756,0.03907834,-2.246515,2.289333,-0.1174332,2.611115,-3.730866,1.302646,-0.3259482,0.7292289,0.9346337,0.7661119,0.8973764,0.9051639,0.6242617,-0.06585045,0.09019224,0.9600461,2.949256,0.5899389,0.3374658,0.3514842,0.08689149,3.072181,0.3061252,1.599292,-1.010053,1.189163,1.088968
1.061054,0.5177278,0.5923368,-0.1476573,-0.6272043,0.4121159,-0.1017544,-2.360211,1.788229,1.008806,4.66314,-0.6364765,-2.603758,0.007067981,-2.359051,2.969805,-0.1873207,2.52635,-3.996516,1.231568,-0.4782501,0.7219787,0.9608908,0.7649006,0.8951513,0.8646244,0.6190191,-0.06557127,0.4765831,0.8296992,1.35831,0.5809306,0.348394,0.3454277,0.08151937,-1.090211,0.3042085,1.54332,-1.041111,1.191845,1.093829
1.189053,0.4279978,0.5258399,-0.3182134,-0.780706,0.1725738,-0.2423109,-2.552622,1.36376,0.9962692,2.054978,-0.830865,-2.716784,-0.1116007,-2.525118,5.463667,-0.2991381,2.53018,-4.376504,1.145169,-0.6903077,0.721846,0.9534405,0.7487583,0.8871559,0.9030092,0.6064427,-0.06894523,0.9950006,0.8804664,2.525161,0.5790571,0.3465362,0.3449477,0.07432701,1.950443,0.298876,1.533741,-1.0729,1.201459,1.095699
1.317052,0.2869634,0.4486068,-0.4511748,-0.9245706,0.07945572,-0.3985264,-2.713496,0.001989017,1.683316,5.987668,-0.8877317,-2.817918,-0.2089439,-2.54041,-0.3197691,-0.3441325,2.478355,-4.067444,1.253094,-0.4042318,0.7123755,0.9332367,0.7514333,0.8801686,0.9393821,0.5884507,-0.08629012,1.848629,0.3521003,0.4578978,0.5665299,0.3459785,0.3332848,0.06174297,1.529041,0.2854289,1.508485,-1.034761,1.200505,1.043589
1.445051,0.4974014,0.5467858,-0.1341955,-0.5253201,0.4410047,-0.05125395,-2.344059,-0.02645542,0.376463,4.365349,-0.5284068,-2.460722,-0.01876246,-2.162844,6.549471,-0.08198107,2.800417,-3.56269,1.367057,-0.2258666,0.7227696,0.9699827,0.7629163,0.9102536,0.9043068,0.6051328,-0.06406619,1.485551,1.223777,2.134223,0.5796769,0.3622066,0.3352334,0.07869937,-0.8612893,0.3023022,1.381705,-1.004038,1.199136,1.092121
1.573051,0.6239905,0.7148989,-0.07426033,-0.5018129,0.5044041,-0.02631007,-2.300235,1.384827,1.521473,4.756297,-0.5316374,-2.45679,-0.01065493,-2.205839,-3.707585,-0.07608079,2.700836,-3.61605,1.3563,-0.2576478,0.7259854,0.9584596,0.7736529,0.928401,0.9696393,0.6163259,-0.06480391,0.9071075,0.7044575,1.409474,0.578824,0.3656599,0.3365668,0.07775636,4.771053,0.3037909,1.466771,-1.007461,1.205371,1.0784
1.70105,0.6444464,0.7838708,-0.06787636,-0.478337,0.4761247,-0.01573571,-2.283005,0.1257669,1.844432,5.02744,-0.5421613,-2.460374,0.01916594,-2.210778,-0.9218297,-0.08868343,2.628613,-3.710027,1.328694,-0.3550366,0.7241011,0.9791524,0.7737381,0.9365059,0.9530011,0.6117451,-0.07137972,1.290449,0.540246,1.218109,0.5848554,0.3603859,0.3360688,0.07722729,4.359282,0.3128455,1.516223,-1.008087,1.211057,1.082884
1.829049,0.5823104,0.768095,-0.1607973,-0.6399933,0.4815664,-0.156006,-2.377116,1.025844,1.071084,3.768281,-0.6772847,-2.587727,-0.0118038,-2.358288,1.717894,-0.1708908,2.486494,-3.998547,1.2428,-0.5527764,0.723294,0.9886392,0.7713146,0.9071596,0.9240462,0.6029873,-0.09076918,1.609573,1.033273,1.540177,0.5884232,0.3333448,0.3529668,0.07224475,1.017658,0.3099529,1.648285,-1.016689,1.204736,1.067192
1.957049,0.495921,0.6748213,-0.3017928,-0.7689417,0.2411293,-0.2801293,-2.536145,1.3893,0.2096766,3.900925,-0.8332111,-2.730891,-0.0658925,-2.483117,4.887872,-0.2971931,2.596023,-4.193035,1.200818,-0.6785137,0.7342881,0.959515,0.7544408,0.887022,0.9063627,0.6008809,-0.1052464,0.5590259,1.356453,1.221345,0.5751377,0.3128321,0.3488904,0.06152981,0.653563,0.300667,1.495618,-1.023643,1.195064,1.022992
2.085048,0.4253666,0.4934126,-0.2157918,-0.6521592,0.2846262,-0.1230575,-2.381627,1.49346,1.039731,2.179554,-0.4690406,-2.401365,0.1293704,-2.028032,2.5049,-0.01103409,2.870615,-3.25423,1.378459,-0.2346676,0.7187769,0.9296181,0.7583736,0.8781686,0.9054556,0.6078452,-0.1028439,0.3965262,0.9499319,1.541948,0.5961872,0.3238853,0.3503185,0.08914492,0.8798083,0.3110469,1.513658,-0.9523528,1.183321,1.031043
2.213047,0.6156079,0.6037917,-0.005330758,-0.5115242,0.3945887,0.05316893,-2.16588,2.020312,1.017217,1.394416,-0.4151297,-2.350144,0.2768122,-2.001542,3.452047,0.01076706,2.737043,-3.250724,1.353291,-0.3512126,0.7285546,0.906012,0.7754685,0.8820975,0.9107666,0.6274228,-0.09929867,0.6066346,0.9717307,4.344775,0.5991635,0.3186971,0.3870698,0.1024578,1.708531,0.323723,1.56748,-0.9469508,1.185095,1.029718
2.341046,0.5699309,0.5492471,0.006224492,-0.5641284,0.509015,-0.0002787567,-2.183961,1.617833,1.748782,4.613636,-0.3938614,-2.320281,0.4107937,-1.960693,1.418706,0.009978155,2.926843,-3.250342,1.340407,-0.4175249,0.7242459,0.9214323,0.7926765,0.8745598,0.8630839,0.6117883,-0.1032007,0.8521405,0.7017401,0.9362666,0.6156261,0.3143992,0.4126876,0.1190111,0.6648095,0.319064,1.490407,-0.9490329,1.191126,1.019122
2.469046,0.4768635,0.5388699,-0.03012609,-0.6800649,0.4097774,-0.121716,-2.243132,0.3358838,1.026935,3.351793,-0.4863996,-2.433365,0.3931355,-2.108322,3.347441,-0.07479098,2.538164,-3.553681,1.243678,-0.5962985,0.7078444,0.8711221,0.8035428,0.8623669,0.8598431,0.6017193,-0.1168658,0.9340285,1.288163,2.076201,0.615418,0.3170628,0.4294209,0.1193448,0.9798937,0.3171216,1.73676,-0.9787603,1.199865,1.029703
2.597045,0.358713,0.401939,-0.2240333,-0.8262205,0.281629,-0.248899,-2.421691,1.243535,1.361666,1.96973,-0.6421311,-2.571737,0.2992771,-2.274218,2.916893,-0.1946337,2.559979,-3.925582,1.178164,-0.8077788,0.708066,0.8792322,0.7802801,0.8487491,0.8992639,0.585227,-0.1227586,0.1894447,0.7855602,1.436383,0.6027395,0.3120063,0.4240441,0.1072062,1.886295,0.3125909,1.536242,-0.993103,1.197882,1.030599
2.725044,0.2647462,0.2537757,-0.3398747,-0.8843887,0.2236121,-0.3212297,-2.529785,2.188272,1.071737,2.925571,-0.4216898,-2.396082,0.3970981,-1.952671,1.013671,-0.01026036,2.77665,-2.999998,1.425526,-0.1724911,0.7123019,0.8663988,0.7631288,0.8452506,0.9250853,0.5706497,-0.1261669,0.1697237,0.6540191,2.750232,0.606535,0.3171927,0.4252158,0.1302395,0.9439191,0.308059,1.556674,-0.9169475,1.199556,1.016525
2.853044,0.5989195,0.5148501,0.04913874,-0.4545193,0.6116149,0.105831,-2.03694,2.215005,1.557616,2.067074,-0.1752226,-2.125664,0.585017,-1.695656,3.182385,0.1686447,2.928213,-2.802266,1.482845,-0.09032357,0.7267978,0.8783098,0.7773565,0.8824751,0.8445757,0.6032666,-0.09518187,0.514299,0.5776045,2.684198,0.6096833,0.3170463,0.4344712,0.1279297,2.766148,0.318579,1.604756,-0.9022934,1.207333,1.03487
2.981043,0.6581953,0.6142859,0.08861221,-0.4452756,0.5683164,0.1037039,-1.991935,2.81482,1.505886,4.437512,-0.1787347,-2.129651,0.6153581,-1.714447,2.379497,0.1708087,3.043474,-2.812774,1.478406,-0.1120957,0.7246243,0.8720173,0.786266,0.8912588,0.90695,0.6129664,-0.1038283,1.411065,0.8411481,1.206974,0.6179416,0.3202538,0.4439973,0.1225167,2.792692,0.3220639,1.588784,-0.9140146,1.218714,1.041153
3.109042,0.6716291,0.7074382,0.04828368,-0.4535255,0.5947756,0.1161354,-1.993612,1.279312,1.265342,2.564735,-0.2328769,-2.15374,0.5743389,-1.826188,-0.07029617,0.1161221,2.966058,-3.066841,1.430359,-0.2171326,0.7261539,0.8651591,0.7651871,0.889438,0.8983491,0.6029801,-0.1120458,1.533689,0.7922814,2.324714,0.6042814,0.3145407,0.4329165,0.1255651,4.07093,0.3155454,1.457409,-0.9395893,1.227287,1.050479
3.237041,0.5557045,0.6351535,-0.1074759,-0.5594547,0.6566486,-0.02472855,-2.139489,2.463471,1.737164,4.548195,-0.3555024,-2.297312,0.4677717,-2.01279,-1.085661,0.006678238,2.81589,-3.387676,1.355355,-0.3800218,0.7056568,0.8697279,0.7519081,0.8744629,0.8522502,0.5984471,-0.1241431,1.176277,0.6581632,2.230036,0.5784244,0.3244427,0.416626,0.1069901,3.942327,0.3082801,1.588562,-0.978871,1.237414,1.064312
3.365041,0.4744248,0.5917052,-0.2241956,-0.7048722,0.4830728,-0.1940107,-2.294494,2.007546,0.8119019,2.400352,-0.5105963,-2.401019,0.3621692,-2.11593,4.08145,-0.06233076,2.907295,-3.255547,1.44547,-0.131817,0.7118664,0.8887475,0.7591029,0.8704518,1.017177,0.5732495,-0.1369581,-0.3590821,0.9812054,1.637814,0.5688798,0.3283635,0.4070635,0.08979176,1.107001,0.2996406,1.483497,-0.9654484,1.235088,1.01868
3.49304,0.624063,0.8090002,0.08783747,-0.2997416,0.8515806,0.1747314,-1.934593,2.671228,1.425371,3.294317,-0.1120422,-1.946644,0.5598748,-1.635462,0.9819417,0.2443625,3.096458,-2.609059,1.595144,0.1459904,0.7095231,0.9240622,0.7826372,0.9092976,0.9843905,0.5814267,-0.09986446,-0.1405475,0.9829485,1.356099,0.5882156,0.3504284,0.3984733,0.1236668,4.90134,0.3091916,1.533349,-0.9067364,1.247007,1.081926
3.621039,0.8456059,1.046297,0.2432109,-0.158123,1.097481,0.2850704,-1.773284,2.818754,2.102075,4.509995,-0.09067865,-1.888182,0.5715558,-1.624235,3.816414,0.2908614,3.135793,-2.69222,1.593069,0.1124572,0.7270935,0.9477937,0.7896889,0.9306946,0.9591646,0.5950215,-0.09029748,0.9522624,0.4971502,1.337143,0.5724268,0.3584516,0.3947299,0.1127959,1.004376,0.3256887,1.593673,-0.9227981,1.253177,1.085124
3.749038,0.8553568,1.064699,0.2566372,-0.2235481,1.149767,0.247082,-1.805486,1.303354,1.358546,6.219423,-0.118861,-1.941457,0.5722567,-1.68973,0.5276603,0.2824189,3.299703,-2.827692,1.555162,0.0285262,0.7217252,0.9365351,0.8008862,0.9434828,0.9019498,0.595666,-0.09906255,-0.04784063,0.8828465,-0.04777521,0.5726647,0.3473732,0.3920401,0.1032299,2.709551,0.3303803,1.386694,-0.9430273,1.256696,1.090599
3.877038,0.7311907,0.957339,0.1727403,-0.3640354,0.8673522,0.1071935,-1.971308,0.2655178,1.253026,4.48722,-0.2922398,-2.104298,0.4784736,-1.907113,1.752963,0.1477242,2.967047,-3.278509,1.46381,-0.2037465,0.7094616,0.9098606,0.808617,0.9132444,0.955524,0.5964499,-0.1132716,1.468006,1.111779,0.6229296,0.5578523,0.3314689,0.3815475,0.09051947,3.407127,0.3246953,1.591,-0.9894735,1.25079,1.095057
4.005037,0.5688349,0.8000874,-0.0004109166,-0.5384632,0.7541797,-0.06727834,-2.16942,2.56476,1.664709,0.4771801,-0.4771734,-2.252752,0.3515911,-2.119493,1.53034,0.01962641,2.972364,-3.64065,1.379338,-0.3752044,0.6998985,0.8829747,0.8004366,0.886057,0.9468676,0.5766992,-0.131807,0.2851745,0.5601231,3.296345,0.5448287,0.3273572,0.3729865,0.08378375,2.650429,0.3161088,1.523425,-1.031414,1.250647,1.095846
4.133036,0.4475232,0.6215869,-0.1029397,-0.63741,0.5377831,-0.1403756,-2.306341,0.1521747,1.196085,3.744323,-0.3478787,-2.148382,0.3893514,-1.875143,2.553186,0.1480529,3.153941,-2.897971,1.581477,0.1277814,0.6951638,0.9112068,0.7872367,0.8749741,0.9919711,0.568353,-0.1345951,2.087891,1.159048,2.590113,0.5464364,0.3298373,0.3644027,0.08703137,1.76003,0.3099541,1.43791,-0.9477249,1.24899,1.074605
4.261035,0.7425023,0.8640904,0.2841524,-0.2603819,0.8958595,0.2163128,-1.859737,1.859458,1.260744,2.898094,-0.1607136,-1.920087,0.5209811,-1.638328,2.566211,0.2958055,3.00707,-2.733182,1.625059,0.1289853,0.7095988,0.8898829,0.8183415,0.9041258,0.9654556,0.5962238,-0.1138546,1.145243,0.9623573,2.724682,0.5520881,0.3376987,0.3796147,0.08710751,2.81004,0.3228751,1.618395,-0.9424163,1.246544,1.111876
4.389035,0.7610313,0.9249132,0.2944377,-0.2770303,0.9097327,0.2101184,-1.890367,-0.7293735,2.328801,3.672794,-0.1800835,-1.955184,0.5334337,-1.706658,4.414706,0.2846811,3.089111,-2.804824,1.607337,0.1087074,0.7087435,0.8844008,0.8250075,0.8970313,0.9349793,0.5909476,-0.1137866,1.520169,0.4569013,1.769634,0.5490025,0.3367052,0.3706978,0.08858598,0.09840472,0.3187852,1.601732,-0.9619696,1.24877,1.094663
4.517034,0.813925,0.9691399,0.2607657,-0.3045123,0.9801218,0.17954,-1.907301,3.581638,2.305458,4.915058,-0.25658,-2.004497,0.4812759,-1.804432,3.508324,0.2282266,2.838026,-3.082971,1.537663,-0.05384066,0.7180676,0.9128786,0.8025582,0.8968298,0.929954,0.5913836,-0.1210571,-0.5460671,0.5824747,2.151291,0.5433066,0.3297907,0.3692653,0.08221363,-0.1641611,0.3199433,1.720276,-0.9877955,1.25158,1.111725
4.645033,0.7321287,0.8854833,0.1480093,-0.449459,0.8787606,0.04433263,-2.069674,1.745597,0.8368093,1.504384,-0.4166487,-2.131279,0.3890721,-1.993877,6.129146,0.1346838,2.715097,-3.445971,1.476766,-0.2284749,0.7154635,0.927507,0.7932972,0.8904365,0.9370091,0.5878687,-0.1248318,1.116714,1.155312,3.348634,0.529153,0.3361748,0.3603432,0.07318192,-0.0760712,0.3191523,1.766647,-1.026433,1.26294,1.130137
4.773033,0.5680493,0.7675141,0.008386708,-0.6053157,0.7846661,-0.124769,-2.219973,0.932578,1.601415,1.616689,-0.5526947,-2.2842,0.299058,-2.137155,1.226215,0.02974183,2.833589,-3.43976,1.52229,-0.07116897,0.6955573,0.9110348,0.7997445,0.8739817,0.9142948,0.5668923,-0.1458517,1.048062,0.8321322,2.708833,0.5223916,0.3281868,0.3535017,0.0630889,2.172119,0.3121838,1.624897,-1.013837,1.257344,1.090536
4.901032,0.6424589,0.7851365,0.20546,-0.3417562,0.8175115,0.1269465,-1.986174,0.6039266,2.170568,5.492105,-0.2117592,-1.984649,0.4890097,-1.717343,3.403363,0.2829841,2.773999,-2.809289,1.661704,0.2305764,0.6962428,0.8932124,0.8102004,0.8898429,0.9130143,0.5765188,-0.1159796,2.179739,0.4700582,1.85867,0.5440134,0.3247256,0.3602963,0.09019186,2.914804,0.316285,1.707485,-0.9546123,1.258013,1.146305
5.029031,0.7839755,0.8946811,0.3031344,-0.2770974,0.8920031,0.2022814,-1.935102,1.723767,1.610245,5.321967,-0.2257511,-2.047761,0.4722304,-1.791727,4.205991,0.2334742,2.968936,-2.953205,1.632537,0.1800341,0.7096674,0.9016512,0.8166674,0.9035822,0.9206646,0.589371,-0.1134391,1.026693,0.7198043,2.374429,0.5350931,0.3077006,0.3610187,0.08231177,1.66848,0.3176768,1.572139,-0.9776979,1.257529,1.136694
5.157031,0.7606393,0.9002646,0.249193,-0.2630037,0.9448152,0.1400718,-1.942562,1.570435,1.175557,3.456716,-0.2127045,-2.185958,0.5011259,-1.78655,2.628875,0.09710488,2.795595,-3.069906,1.549947,0.1003935,0.7085283,0.8884885,0.8110072,0.9082677,0.8620384,0.5867934,-0.1099597,1.07689,1.084978,3.05719,0.5381206,0.2921452,0.3596854,0.08510795,2.384975,0.2794478,1.657423,-1.005225,1.25545,1.138218
5.28503,0.6680367,0.8378645,0.08409795,-0.3450093,0.7114643,-0.105654,-2.06648,1.655925,1.785017,1.862895,-0.2766404,-2.524881,0.5032181,-1.973264,1.901877,-0.08936063,2.701288,-3.401417,1.431705,-0.09395181,0.6958966,0.8881132,0.7770051,0.892603,0.912223,0.5208302,-0.107561,0.3356686,0.717917,3.97747,0.5224962,0.2204525,0.3657127,0.1011552,3.627057,0.2619785,1.64435,-1.050552,1.248781,1.128076
5.413029,0.5136457,0.7446937,-0.13434,-0.534884,0.5789655,-0.3761869,-2.263414,2.033896,1.378606,0.968176,-0.3243897,-2.853538,0.4929912,-2.090722,2.427526,-0.394848,2.638484,-3.75684,1.273518,-0.3387237,0.6773288,0.8841993,0.7494902,0.8737503,0.8604812,0.4738021,-0.1110745,0.5136722,0.7458683,1.948373,0.5227504,0.1626922,0.3765065,0.1040307,0.8276411,0.2109166,1.585512,-1.084462,1.237909,1.095397
5.541028,0.3471858,0.6003563,-0.3164429,-0.5448194,0.3463327,-0.5737331,-2.311713,3.245939,1.64016,2.376412,0.4063865,-2.96357,1.029933,-1.728418,3.240792,-0.2939362,2.667051,-2.809566,1.493036,0.2240573,0.6557208,0.9138324,0.7003414,0.8607223,0.8287941,0.4019679,-0.09425577,0.008662485,0.5756891,1.677713,0.5958793,0.01499397,0.4603684,0.1398597,1.300718,0.1800442,1.658607,-0.9970057,1.234396,1.072218
5.669028,0.7215286,0.8877892,0.09160104,0.05734764,0.6765361,0.05010247,-1.907827,2.46625,1.227189,5.478665,0.6297956,-2.676746,1.268993,-1.573746,1.661357,-0.1567012,2.738671,-2.728199,1.494619,0.2513838,0.6835729,0.8936157,0.7269241,0.9044996,0.7819166,0.4793759,-0.06237758,0.7862427,0.8551835,0.762404,0.6006334,0.02997141,0.4811124,0.1530626,1.832211,0.1991747,1.579377,-1.00526,1.231582,1.089963
5.797027,0.7499292,0.9058347,0.09629919,0.04657406,0.5977944,0.06257981,-1.900701,1.485729,1.220319,4.081332,0.594923,-2.629043,1.317803,-1.612149,3.983185,-0.1358663,2.873031,-2.759266,1.474899,0.2455321,0.6867697,0.9081562,0.732424,0.9095231,0.8329173,0.4851698,-0.05266694,0.7860633,1.044507,2.507826,0.6003616,0.03544902,0.5038354,0.1547063,-0.1036366,0.2099438,1.662702,-1.009825,1.231708,1.065297
5.925026,0.7470559,0.9173007,0.07782234,-0.0185926,0.6764867,0.03133278,-1.912462,0.8946514,1.488136,3.679936,0.403888,-2.668925,1.245921,-1.740741,-0.4156158,-0.1927742,2.763625,-3.053826,1.380046,0.03460397,0.6831034,0.9056232,0.7287044,0.9069203,0.8218365,0.4909136,-0.05679825,1.381978,0.8656187,1.562092,0.5773259,0.0490655,0.5010012,0.1329387,2.487158,0.2148424,1.512841,-1.042091,1.232009,1.084533
6.053026,0.6092408,0.8103744,-0.1050852,-0.2725083,0.5042773,-0.1597649,-2.058884,1.228739,1.651341,4.086094,0.1892359,-2.816977,1.156562,-1.914523,4.1738,-0.3315336,2.590085,-3.440889,1.244934,-0.1976124,0.6734318,0.9074179,0.7128598,0.897664,0.8484389,0.4824915,-0.05486711,1.023078,0.8106617,1.968509,0.5700298,0.04720863,0.4965814,0.1257869,-0.07478976,0.2105456,1.599389,-1.078929,1.232268,1.077897
6.181025,0.4406324,0.6326568,-0.3121104,-0.5365456,0.4316851,-0.3407274,-2.300429,1.402576,0.8235787,3.583988,-0.1311743,-2.873797,0.7655247,-2.122463,-2.943468,-0.3764216,2.929702,-3.329705,1.303004,0.01157458,0.6633594,0.9003931,0.7013608,0.8806988,0.7894452,0.4882993,-0.09379046,1.337702,0.8058443,1.960687,0.5462683,0.1006076,0.4536206,0.1019687,4.823476,0.222966,1.33603,-1.054923,1.228882,1.015936
6.309024,0.6092019,0.6869723,0.003608907,-0.08382946,0.6377682,0.1263792,-1.960821,2.621255,1.421491,1.713365,0.3607758,-2.30775,0.9464537,-1.608474,-0.5968412,-0.008111488,2.869094,-2.630699,1.467599,0.3020666,0.6697472,0.8996063,0.7232029,0.9098965,0.8033594,0.5274584,-0.07434126,-0.1622018,0.799386,4.358954,0.5918435,0.159179,0.4451666,0.1114767,3.952799,0.2478668,1.67256,-0.9945157,1.221752,1.068845
6.437023,0.8125218,0.8276697,0.1415545,0.01839375,0.7503112,0.2632238,-1.856147,2.146668,1.490188,3.563515,0.3404296,-2.260761,0.9401922,-1.638776,0.6854461,0.005041161,2.886621,-2.71769,1.43132,0.2441168,0.6831879,0.9023384,0.7300198,0.9239911,0.8081023,0.5574218,-0.06371848,0.5173955,0.6878517,0.5463719,0.5962728,0.1775236,0.453996,0.10607,2.263799,0.2557898,1.580997,-1.012031,1.222837,1.056661
6.565022,0.7881083,0.8117996,0.09461678,-0.07480492,0.6617457,0.193063,-1.883768,1.216023,1.462449,3.925091,0.2874278,-2.307565,0.8888872,-1.703977,2.419362,-0.001293851,2.921937,-2.840473,1.387583,0.146753,0.6778992,0.8984096,0.7270523,0.9145959,0.8990585,0.555249,-0.07681438,1.811621,0.6509025,2.373161,0.5941722,0.190019,0.4540614,0.1074128,1.505274,0.2550327,1.65197,-1.032549,1.214915,1.065774
6.693022,0.6989281,0.7596611,-0.03367914,-0.2815095,0.5659526,0.03405749,-2.048308,1.979502,1.719724,6.4839,0.04317767,-2.462452,0.7506394,-1.911607,1.376788,-0.1511465,2.573944,-3.256727,1.243119,-0.1096567,0.6665099,0.875874,0.722026,0.9067974,0.8417292,0.5462644,-0.08682533,0.6495658,0.6943833,-1.013217,0.5866956,0.173396,0.4461214,0.08932877,0.933696,0.2508544,1.688975,-1.070917,1.217864,1.058963
6.821021,0.4836395,0.5967464,-0.2091094,-0.5418406,0.5899136,-0.17486,-2.29418,2.796835,1.135424,3.32906,-0.2096215,-2.664452,0.5462034,-2.15061,2.946115,-0.3037,2.519606,-3.705204,1.117548,-0.3490638,0.6491948,0.8735235,0.7143496,0.8814228,0.7688556,0.5277199,-0.1061624,-0.3992655,0.8448557,0.9775116,0.549305,0.1624527,0.4268396,0.07715533,0.6111916,0.2411368,1.733273,-1.107691,1.215063,1.0372
6.94902,0.2845723,0.4146845,-0.426165,-0.7715867,0.3670055,-0.3780749,-2.528971,1.749072,0.926262,2.599476,-0.4610008,-2.856879,0.3800689,-2.323733,-0.05450528,-0.421203,2.358427,-3.585559,1.173535,-0.1825974,0.6360912,0.8675872,0.7132555,0.8616529,0.8017583,0.5149493,-0.1258546,0.1996546,1.097294,2.249928,0.5388082,0.1649134,0.3997253,0.08256487,2.653991,0.2326435,1.779754,-1.083516,1.201371,0.9726114
7.07702,0.4449075,0.4413015,-0.1171079,-0.376115,0.4260062,-0.01548092,-2.16271,3.098333,1.268568,2.13247,-0.02017432,-2.41766,0.6006086,-1.750481,-0.1075056,-0.08015788,2.760551,-2.834477,1.333657,0.1118317,0.6398695,0.8819833,0.7255399,0.8922023,0.8813786,0.5398685,-0.09891629,0.1524776,1.004489,2.888577,0.5614198,0.1827111,0.4093352,0.08651086,3.193573,0.2459854,1.659281,-1.017173,1.194805,1.03432
7.205019,0.6583887,0.6372228,0.01215771,-0.2520657,0.5817112,0.1158093,-2.025353,1.011693,0.720925,2.877195,-0.05053217,-2.392935,0.5920069,-1.821543,1.283463,-0.07391788,2.771796,-2.933739,1.30748,0.077365,0.6595372,0.8546695,0.7214345,0.8994454,0.8695499,0.5524256,-0.09808211,1.314705,0.9835132,2.027462,0.5522909,0.1785574,0.4147877,0.09011675,1.276538,0.2514853,1.504852,-1.028905,1.192015,1.009742
7.333018,0.6486281,0.5818132,-0.03925922,-0.3171468,0.5712005,0.04917231,-2.071534,2.535371,1.265714,5.438537,-0.1007108,-2.417541,0.5820845,-1.854175,-0.5439373,-0.09940456,2.788698,-3.061064,1.2553,-0.0569788,0.6590412,0.8971689,0.716277,0.8936714,0.8179092,0.5512424,-0.09998967,0.5066243,0.8006495,0.0302461,0.5525822,0.1834411,0.4017668,0.07759505,3.023685,0.249565,1.5816,-1.047826,1.193623,1.034443
7.461018,0.5699863,0.5444029,-0.1610529,-0.4770861,0.5288252,-0.0894329,-2.226106,1.009006,1.213254,2.914693,-0.3033989,-2.547043,0.4616764,-2.065908,1.532033,-0.236229,2.711094,-3.500831,1.135428,-0.2734829,0.6573411,0.8710578,0.7032608,0.881206,0.8464758,0.539441,-0.1035412,0.7746891,0.7771812,2.121772,0.5435335,0.1764268,0.4009462,0.07037676,1.413598,0.2425994,1.50102,-1.086986,1.192346,1.029158
7.589017,0.3936682,0.3699282,-0.3663384,-0.7141816,0.3741583,-0.3118566,-2.431262,1.096248,1.063411,1.874299,-0.5348763,-2.756356,0.3125329,-2.298553,3.674157,-0.3885839,2.305168,-3.952482,1.010107,-0.5780954,0.6523957,0.8982607,0.6926426,0.8702256,0.8102307,0.5218229,-0.1198043,1.158556,0.4328379,2.603591,0.5296125,0.1776928,0.3904069,0.0568711,0.8090996,0.2365024,1.669042,-1.126589,1.194694,1.034892
7.717016,0.2187693,0.2383878,-0.5771427,-0.9161208,0.1681813,-0.5157984,-2.667982,1.741091,0.8410534,1.947007,-0.7537184,-2.95622,0.1482191,-2.505554,1.463248,-0.5448591,2.322909,-4.06876,1.020506,-0.5024567,0.637518,0.8698731,0.6828341,0.8494591,0.8631038,0.5062627,-0.1333959,0.8063238,0.707954,2.38725,0.5117003,0.1751325,0.3811539,0.05547221,2.929004,0.2274617,1.62167,-1.119393,1.185013,0.9495091
7.845016,0.2981898,0.2358511,-0.3643953,-0.5771914,0.3392707,-0.2522617,-2.398004,2.350328,0.9575335,5.729726,-0.299784,-2.557333,0.3571663,-1.995807,0.3628954,-0.2285003,2.715661,-3.204273,1.21799,-0.1260263,0.6381703,0.8595402,0.6923631,0.8727261,0.823846,0.5209571,-0.1120573,-0.4114452,0.62836,-0.07101523,0.5299012,0.1787258,0.3853826,0.07081596,2.642019,0.2343479,1.5479,-1.044892,1.17054,1.012037
7.973015,0.5220128,0.3866022,-0.1811836,-0.4407031,0.4147148,-0.1098601,-2.246422,3.01921,1.106252,0.8331225,-0.3435476,-2.568117,0.3951092,-2.042608,2.573333,-0.2382007,2.719351,-3.333821,1.171957,-0.1973298,0.6554021,0.8531005,0.700909,0.8847359,0.8439651,0.5389143,-0.1108516,0.1569751,0.6284848,3.818471,0.5320602,0.1837238,0.375841,0.0621837,1.656672,0.2390687,1.603534,-1.074501,1.172763,0.9952744
8.101014,0.4896093,0.3371354,-0.2285353,-0.4895509,0.2366273,-0.1600796,-2.325938,1.049034,1.209657,1.820565,-0.3737192,-2.605314,0.3554379,-2.094269,3.796947,-0.2674626,2.603111,-3.437666,1.128783,-0.2882398,0.6545639,0.8723081,0.6950578,0.8799537,0.9034555,0.5408809,-0.1036023,0.853632,0.7447627,3.3538,0.5333608,0.1855527,0.3813974,0.06321985,0.08084033,0.2392724,1.588713,-1.084782,1.175272,1.003959
8.229013,0.4153606,0.2755214,-0.3552981,-0.6355619,0.2416677,-0.2840883,-2.436111,-0.2961494,1.306168,4.303684,-0.5418651,-2.737544,0.2605418,-2.283762,8.339665,-0.3971206,2.50919,-3.878867,1.02036,-0.5358891,0.6490294,0.88577,0.6884901,0.8711183,0.84777,0.5319327,-0.1228779,1.987576,0.5208294,0.432421,0.5191559,0.172194,0.3738392,0.04567209,-1.55879,0.2329222,1.55431,-1.115673,1.174075,1.020125
8.357013,0.2391515,0.1472902,-0.5451033,-0.8452772,0.170285,-0.4832593,-2.637203,-0.6105533,0.04664833,2.672108,-0.7449009,-2.929282,0.1206168,-2.503988,1.243938,-0.5603375,2.470091,-4.337554,0.8787179,-0.803144,0.63933,0.8700906,0.671972,0.8556303,0.8333041,0.5135841,-0.1376797,1.550142,1.090001,3.128589,0.506313,0.1701007,0.3652146,0.04578824,0.6762488,0.2224811,1.53813,-1.149329,1.179146,1.004022
8.485012,0.05500659,0.006420229,-0.7497277,-1.032118,-0.0207106,-0.6689003,-2.84079,-2.018661,0.6445147,1.842536,-0.9805223,-3.12749,-0.04032286,-2.708264,5.128707,-0.7097921,2.128868,-4.730739,0.7903442,-1.010348,0.6272791,0.8657264,0.6637313,0.8330712,0.8151533,0.4908503,-0.156517,2.732189,0.7466666,2.898289,0.5004218,0.1759875,0.3539131,0.03542088,-0.6839596,0.2112165,1.543854,-1.168977,1.175772,0.9485098
8.613011,-0.0310833,-0.1269691,-0.7236503,-0.9333222,-0.01886181,-0.6306095,-2.831814,-0.5791628,1.129088,5.732007,-0.6335633,-2.894748,0.07828188,-2.294133,1.19123,-0.4936564,2.462631,-3.720228,1.013483,-0.4598408,0.6186672,0.8604383,0.6732691,0.8418548,0.8718838,0.4851531,-0.1441205,1.648031,0.4959854,-0.4744469,0.5177454,0.1795122,0.3640437,0.04275994,3.147265,0.2128219,1.599385,-1.083589,1.162377,0.9608005
8.741011,0.257914,0.09404345,-0.4545151,-0.701181,0.1191522,-0.4020228,-2.556364,1.752239,0.6955019,1.058354,-0.6749529,-2.856535,0.1056606,-2.350607,3.829369,-0.4897109,2.458406,-3.945898,0.9485095,-0.6355865,0.6404341,0.8681828,0.6874108,0.8585735,0.8144361,0.5173392,-0.1428638,0.1261294,0.9217862,3.103226,0.5159109,0.1756612,0.357884,0.04648213,0.5386453,0.2199001,1.477451,-1.10543,1.168258,0.9944332
8.86901,0.1903488,0.0875141,-0.5247083,-0.7877545,0.06367241,-0.4649323,-2.677366,0.8469599,1.019152,5.960794,-0.7049204,-2.903905,0.05725249,-2.38864,3.892781,-0.5275603,2.328263,-3.976665,0.9209609,-0.6858541,0.6311134,0.8426347,0.6924029,0.8551673,0.8892945,0.5101829,-0.1389133,0.6746219,0.7126752,-1.014347,0.5118738,0.1725689,0.3602861,0.03826464,1.399906,0.219655,1.520974,-1.113487,1.166054,0.9886677
8.997009,0.1372319,0.01717856,-0.5911121,-0.8877077,0.09494982,-0.5560926,-2.752438,0.4819566,0.898312,1.262682,-0.8675271,-3.052176,-0.03450779,-2.538589,4.208518,-0.6264623,2.473948,-4.379083,0.8252839,-0.8841479,0.6288919,0.8661214,0.6893783,0.8522598,0.8057131,0.5059124,-0.1453245,0.5361179,0.6318473,3.32286,0.5081569,0.1823726,0.3571228,0.03382916,0.6651317,0.2173691,1.425608,-1.13407,1.16478,0.9946205
9.125009,-0.03466129,-0.08909938,-0.7702888,-1.081342,-0.1511321,-0.7328132,-2.929941,0.7198595,0.5905489,4.725501,-1.089385,-3.211245,-0.1726113,-2.751863,4.624374,-0.7626728,2.254539,-4.838513,0.6930859,-1.136381,0.6189399,0.8692595,0.6709108,0.8323739,0.9026188,0.4855766,-0.1646184,0.8059488,0.7965724,0.7585548,0.4994383,0.172806,0.3431062,0.02855074,0.7244825,0.2109483,1.416483,-1.16829,1.168973,0.9935928
9.253008,-0.2315432,-0.2755667,-0.986213,-1.287899,-0.1757596,-0.956849,-3.173373,0.1996693,0.8743792,5.473946,-1.282158,-3.396423,-0.3205746,-2.91272,1.34475,-0.8854209,2.186816,-4.764235,0.7331914,-1.039121,0.6050712,0.8659371,0.6627351,0.8150761,0.8346624,0.4704044,-0.1606286,0.5760692,0.5426444,0.2393504,0.4910974,0.1695859,0.3362382,0.0239058,2.165948,0.2025633,1.454762,-1.156717,1.16061,0.8992
9.381007,-0.1117536,-0.2053781,-0.7314658,-0.9515591,-0.1665283,-0.6918579,-2.899571,-0.3973188,0.4887668,-2.223776,-0.8729539,-3.069695,-0.1308263,-2.496661,3.259624,-0.621542,2.224477,-4.107871,0.8432766,-0.7890908,0.6077895,0.8695629,0.6712623,0.8393494,0.8568968,0.4780699,-0.1479593,0.8014427,0.6856703,5.742707,0.499151,0.174487,0.3475566,0.04497058,0.268982,0.2166053,1.587144,-1.094439,1.161832,0.9762517
9.509007,0.01242774,-0.09800591,-0.6862484,-0.9627489,0.02380979,-0.6630009,-2.864219,0.7833841,0.5463789,3.931957,-1.020101,-3.135072,-0.1864018,-2.618199,1.84367,-0.6900074,2.204979,-4.355574,0.7797747,-0.9469029,0.61615,0.8709313,0.6789737,0.8453397,0.7871947,0.4943892,-0.1557097,1.275559,0.9406487,1.590874,0.5041301,0.1668457,0.3472738,0.03506557,0.3198638,0.2139438,1.566342,-1.126067,1.160988,0.9584191
9.637006,-0.04673919,-0.1108586,-0.7388574,-0.9977157,-0.09485229,-0.7215575,-2.9341,1.552909,0.3824796,2.801813,-1.035626,-3.194036,-0.2146149,-2.640994,2.583814,-0.7261169,2.317708,-4.486484,0.729882,-1.011538,0.6130568,0.8672647,0.672365,0.840122,0.8242345,0.4881784,-0.1524553,-0.2559016,0.9477071,2.535034,0.5016689,0.1714926,0.3425246,0.02964546,0.9149906,0.2088798,1.405584,-1.132428,1.165197,0.9767037
9.765005,-0.144975,-0.1916248,-0.8695087,-1.159541,-0.2232501,-0.8605379,-3.053984,0.6858783,0.04618902,2.205444,-1.22968,-3.313308,-0.3188983,-2.821744,3.273616,-0.8549365,1.895345,-4.929636,0.6065785,-1.238601,0.6072488,0.863706,0.6653959,0.8300718,0.9374297,0.4820225,-0.1678096,1.609694,1.095167,1.779484,0.4919554,0.1643136,0.3373604,0.0213317,1.921199,0.2085562,1.652277,-1.165268,1.173581,0.9955379
9.893004,-0.3282061,-0.2995788,-1.057725,-1.365154,-0.3630941,-1.047142,-3.274873,-0.8246364,0.1423346,0.2152806,-1.450929,-3.526558,-0.4607351,-3.063908,1.446975,-0.9983238,1.6922,-5.425241,0.4955009,-1.486418,0.5972727,0.8620642,0.6519712,0.8093806,0.8634221,0.4600704,-0.1768727,1.735685,0.8658874,4.073662,0.479702,0.1699909,0.3303096,0.02945035,2.957799,0.2042213,1.649053,-1.198434,1.170965,1.004147
10.021,-0.5145954,-0.5239081,-1.224875,-1.497491,-0.5019493,-1.187043,-3.452449,-0.3327591,0.3785195,1.46652,-1.266468,-3.430804,-0.420241,-2.831216,0.9984997,-0.8556995,2.137091,-4.342009,0.7594513,-0.8896216,0.5876445,0.8908049,0.6484661,0.8077223,0.905302,0.4480581,-0.1716843,1.167009,0.8484493,2.312558,0.4925489,0.1718332,0.3326907,0.03335785,2.184353,0.1998102,1.486395,-1.103749,1.16214,0.9393266
10.149,-0.06520263,-0.1542972,-0.7140774,-0.9380827,-0.08871804,-0.6880055,-2.921449,1.177671,0.444038,1.064828,-1.001337,-3.110113,-0.2188957,-2.526358,4.035337,-0.6358579,2.28991,-4.108448,0.7937644,-0.770652,0.6128715,0.8679709,0.6642805,0.8435771,0.8097033,0.4901438,-0.1496542,-0.1995779,0.8802843,3.862852,0.5004651,0.1785136,0.3442393,0.03450226,-0.8652881,0.2210266,1.535659,-1.085444,1.169478,0.971811
10.277,-0.01166725,-0.1158206,-0.6886367,-0.9698888,-0.06867287,-0.6749471,-2.89659,1.104986,0.6504021,2.41016,-1.049796,-3.123066,-0.2323306,-2.565538,-0.3351398,-0.641752,2.27826,-4.161538,0.787641,-0.8170797,0.6223392,0.881642,0.6699629,0.8565741,0.855047,0.498283,-0.1620418,0.06454574,0.6902754,0.5556422,0.5103508,0.1773117,0.3448696,0.03079974,3.565875,0.2224602,1.523937,-1.09669,1.174181,0.9695917
10.405,0.0004307964,-0.1202134,-0.6837763,-0.9674158,-0.04028131,-0.7065501,-2.915756,0.9518566,0.5581924,1.216614,-1.092944,-3.18516,-0.2383136,-2.66491,-1.903558,-0.6888832,2.360535,-4.397829,0.714404,-0.9483255,0.6174442,0.9072955,0.6742613,0.8525302,0.844304,0.502243,-0.1578437,0.5253312,0.6738507,3.222924,0.5011367,0.1817285,0.3448296,0.03445814,2.810533,0.2227909,1.417467,-1.125465,1.181268,0.9896891
10.533,-0.133518,-0.1514561,-0.8399411,-1.147869,-0.1210787,-0.8573728,-3.078144,2.346304,0.8777343,3.496386,-1.27309,-3.335764,-0.3308472,-2.846792,2.961181,-0.8372177,2.14083,-4.863835,0.6027523,-1.196602,0.6071406,0.8656917,0.669627,0.8434629,0.7860222,0.4911523,-0.1588473,0.05251729,0.5327201,1.991881,0.4969368,0.1799857,0.3404872,0.02112113,1.924982,0.2214817,1.519761,-1.152157,1.189073,0.9890029
10.661,-0.3095046,-0.325159,-1.030792,-1.347181,-0.3329478,-1.047014,-3.287709,0.397449,1.145007,1.572598,-1.477682,-3.49658,-0.462864,-3.033356,3.083409,-0.9638094,1.799266,-4.968636,0.6243671,-1.136972,0.6009787,0.8867314,0.6590361,0.8289149,0.8605097,0.4779256,-0.1672811,1.059102,0.2162435,2.115711,0.4957376,0.1752344,0.3410273,0.03057951,1.049395,0.215865,1.619159,-1.151679,1.18454,0.9057828
10.789,-0.2170465,-0.2918113,-0.7866982,-1.019444,-0.2091213,-0.7941493,-3.008828,1.38886,0.6035284,3.725606,-0.9480373,-3.116325,-0.2062057,-2.489907,0.2644782,-0.6411794,2.283189,-3.960031,0.8366306,-0.6646047,0.6032938,0.879707,0.6620464,0.8582441,0.8441008,0.4916409,-0.1533659,0.3132634,0.9188562,1.968863,0.5087888,0.1858397,0.3565309,0.03827455,2.257202,0.2217281,1.686155,-1.083268,1.186459,0.9604997
10.917,0.05794629,-0.06967561,-0.5714844,-0.8363912,-0.08228233,-0.5765625,-2.781868,1.985567,0.5652261,5.75224,-0.9334689,-3.047894,-0.1447537,-2.495052,2.57092,-0.6026667,2.432648,-4.033525,0.8301364,-0.7024744,0.6228417,0.8810021,0.6761287,0.8837578,0.891257,0.5163791,-0.1483264,-0.8008837,0.8655029,-0.0008405232,0.5205714,0.1855464,0.3626314,0.03815657,1.727081,0.2306684,1.597078,-1.092442,1.191385,0.9778304
11.045,0.06436812,-0.06199246,-0.5687329,-0.8643654,0.0391136,-0.5795822,-2.795637,1.86031,1.096433,2.36061,-0.9141035,-3.043267,-0.1175123,-2.491087,0.1125484,-0.589135,2.42028,-4.060475,0.8115298,-0.7189202,0.6226993,0.889982,0.6796355,0.8912665,0.7915078,0.5198548,-0.1429868,0.1774861,0.7606398,1.476595,0.523137,0.184879,0.3671249,0.03249561,3.04258,0.2309166,1.536952,-1.095995,1.199125,0.9855689
11.173,0.03724758,-0.04744979,-0.6300005,-0.9586259,-0.00527274,-0.6651495,-2.871258,-0.0937378,0.4397531,3.999722,-1.033231,-3.144674,-0.1783717,-2.645522,0.7899183,-0.6771266,2.225455,-4.398353,0.7230221,-0.9275589,0.621375,0.8846721,0.6797959,0.8886705,0.8133447,0.5204625,-0.147245,1.068422,0.8396527,2.756927,0.5242419,0.1950857,0.3684915,0.0272918,1.545059,0.233655,1.608241,-1.130443,1.207519,1.000187
11.301,-0.1003406,-0.1538725,-0.789407,-1.13556,-0.1519336,-0.8232247,-3.047688,0.5727562,0.568872,2.570614,-1.207677,-3.318008,-0.2812639,-2.850984,2.839674,-0.8003064,2.020625,-4.819026,0.6212056,-1.12997,0.6141671,0.8934881,0.6740768,0.8756043,0.8205165,0.5106013,-0.1501324,0.1613322,0.813433,2.645301,0.5190604,0.1982834,0.3661518,0.03118217,2.287919,0.2284045,1.621821,-1.159941,1.213528,0.9943762
11.429,-0.274395,-0.2980722,-0.9261638,-1.232429,-0.2377574,-0.9397314,-3.128669,1.68658,0.2302581,0.4411644,-1.060519,-3.230549,-0.2687453,-2.630594,-1.875913,-0.6875314,2.376036,-3.998409,0.8391948,-0.5978603,0.606653,0.8800566,0.669386,0.8590156,0.8836525,0.4983232,-0.180804,-0.1065654,0.9838351,4.998414,0.5301413,0.1900449,0.3772751,0.03107625,2.469519,0.226642,1.527727,-1.078079,1.209296,0.9468325
11.55699,0.08670127,0.0008582317,-0.5113464,-0.8020424,0.04235118,-0.522131,-2.739577,0.2129352,0.4231792,1.80573,-0.8411738,-2.989154,-0.08073514,-2.423831,4.528974,-0.5249196,2.511609,-3.879549,0.8561562,-0.6126889,0.624848,0.8637619,0.6848196,0.9013852,0.8398558,0.5254663,-0.1341341,1.341814,0.8670782,2.829726,0.5404025,0.202548,0.380357,0.0415187,1.346354,0.2415663,1.545736,-1.082944,1.216792,1.003471
11.68499,0.108066,0.0286693,-0.5273744,-0.8434565,0.01982577,-0.5447291,-2.738269,1.34674,0.4628009,3.825895,-0.8681288,-3.002351,-0.09430794,-2.468199,-1.457323,-0.5331918,2.288222,-3.926125,0.8550248,-0.6244981,0.6272733,0.8802812,0.6871591,0.9023776,0.8746775,0.5368212,-0.1504729,0.2560332,1.029564,1.95111,0.5441228,0.2030311,0.3849052,0.03773374,3.107605,0.2436165,1.636871,-1.082338,1.222528,0.9915483
11.81299,0.1196412,0.0681397,-0.522935,-0.8594141,0.0529832,-0.5631586,-2.760273,2.185941,0.901755,4.209436,-0.9240227,-3.038766,-0.1089209,-2.533296,0.8040081,-0.5723704,2.363657,-4.139542,0.7967573,-0.7261327,0.6268402,0.8750728,0.6900336,0.9093654,0.8796297,0.5408311,-0.1410101,-0.422145,0.7214302,0.4243385,0.5460338,0.2040304,0.3895068,0.03396128,2.828792,0.2435985,1.62949,-1.107993,1.227787,0.9997272
11.94099,0.006748873,-0.02483005,-0.660295,-0.995451,-0.03485894,-0.6930801,-2.891856,0.9062477,0.8986177,3.132746,-1.081098,-3.202056,-0.195105,-2.728415,1.921614,-0.6806806,2.267473,-4.533754,0.6928844,-0.9480835,0.6220399,0.8847343,0.6933413,0.8894837,0.8701752,0.5329915,-0.1487285,-0.4727966,0.6928273,2.006608,0.5405459,0.2143598,0.387453,0.0398861,-0.1746628,0.2375547,1.521134,-1.132934,1.238288,0.9992033
12.06899,-0.1562305,-0.1155529,-0.8276483,-1.180471,-0.1569422,-0.8664933,-3.100802,0.1161554,0.4659837,2.166029,-1.177721,-3.297277,-0.2826174,-2.809144,4.066,-0.749139,2.303332,-4.250722,0.7879702,-0.6925688,0.6142413,0.862538,0.68772,0.8757668,0.9097533,0.5198351,-0.1500534,1.875332,0.738816,2.23068,0.5356955,0.1986054,0.3829047,0.04033957,0.5231881,0.233149,1.572206,-1.100334,1.235245,0.9465498
12.19699,0.04247619,-0.01061941,-0.5071606,-0.7901755,0.105468,-0.5079595,-2.727292,2.295399,1.028417,1.737432,-0.79926,-2.960361,-0.06474881,-2.37359,4.985857,-0.4879415,2.421955,-3.781672,0.8876063,-0.5414835,0.6211239,0.8889295,0.6977534,0.9054706,0.8570274,0.5322869,-0.1289486,-0.3083133,0.7205163,3.780541,0.5522777,0.2132687,0.3928975,0.04209597,0.4135773,0.2437203,1.740079,-1.059162,1.23647,1.002454
12.32499,0.130383,0.1158554,-0.4785602,-0.7950842,0.08946183,-0.4999189,-2.722831,1.176171,0.5695062,3.010375,-0.8425365,-2.994934,-0.0896625,-2.464616,2.903853,-0.5244417,2.306602,-3.901184,0.8504641,-0.6188637,0.6288401,0.8684341,0.7030534,0.9027517,0.8997107,0.5445681,-0.1317003,0.7111992,0.7887928,1.758249,0.5454522,0.2075879,0.3990779,0.04570149,0.2671994,0.244642,1.684177,-1.086186,1.240983,0.9934164
12.45299,0.1145812,0.09744977,-0.4867048,-0.8109678,0.06379408,-0.5066211,-2.712804,0.5966686,1.199175,4.674339,-0.8659049,-3.009837,-0.09726209,-2.508595,0.1677959,-0.5462136,2.420996,-4.037279,0.7901543,-0.7188699,0.6272673,0.8794159,0.7033758,0.9078158,0.9078401,0.5465819,-0.139845,0.9989957,0.6522406,1.420386,0.5544816,0.2118342,0.4082982,0.05058901,3.048647,0.2476373,1.614592,-1.098921,1.251484,1.006354
12.58099,0.02358027,0.0241022,-0.6203693,-0.9467834,0.1260791,-0.6250572,-2.832213,-1.208407,0.2191079,3.52634,-1.019343,-3.139911,-0.1634329,-2.66394,1.47939,-0.6589369,2.327404,-4.422149,0.6878914,-0.9466347,0.6221927,0.8895723,0.6958954,0.8941602,0.8117697,0.5385733,-0.1534262,1.335298,1.144627,0.704269,0.5465808,0.2101416,0.391693,0.04320214,2.753448,0.2447158,1.487352,-1.118252,1.257322,1.01962
12.70899,-0.1337781,-0.08671047,-0.8014761,-1.118094,-0.01567436,-0.8005646,-3.027414,2.684222,1.149791,3.403388,-1.199964,-3.295786,-0.2918112,-2.846905,5.651423,-0.7820762,2.23063,-4.648594,0.6606066,-0.9714903,0.6174505,0.888741,0.687369,0.8731034,0.8799396,0.5268209,-0.1546832,-0.818419,0.3857555,0.7582273,0.5348009,0.2121631,0.3938324,0.03941031,-0.9339874,0.2349508,1.527439,-1.125337,1.256293,0.9501266
12.83699,-0.0895955,-0.07963189,-0.6370124,-0.8504585,-0.05442435,-0.5675679,-2.783542,0.1881837,1.406389,2.771503,-0.7128318,-2.899389,-0.04490762,-2.309174,5.338397,-0.4617526,2.568228,-3.549548,0.9059935,-0.4551761,0.6157724,0.8918416,0.6948959,0.8880208,0.8830599,0.531662,-0.1341188,1.453877,0.6431422,2.723761,0.555879,0.2140401,0.3979364,0.05639099,1.286469,0.2381205,1.51184,-1.040924,1.253094,1.006511
12.96499,0.2390084,0.1500062,-0.3746368,-0.6185578,0.2839117,-0.3164473,-2.533956,0.8410513,1.543192,4.464823,-0.6324517,-2.802981,0.03976056,-2.250916,2.052635,-0.4112965,2.669378,-3.560563,0.901283,-0.4681452,0.6411793,0.9182475,0.7024156,0.9146655,0.8292873,0.5635675,-0.1153712,1.500198,0.3311289,1.558822,0.5547234,0.2159198,0.4078536,0.06108841,1.831688,0.2490105,1.454888,-1.052213,1.256595,1.000183
13.09299,0.2591936,0.2037602,-0.3716909,-0.6596823,0.2182673,-0.3167427,-2.502784,3.241682,1.605483,1.670644,-0.618395,-2.812044,0.04588226,-2.267254,-0.9988573,-0.4110103,2.448268,-3.560749,0.8860584,-0.5223395,0.6428368,0.9265329,0.6985695,0.9275839,0.9070517,0.5603879,-0.1277509,0.4913649,0.6389295,3.866445,0.5545455,0.2222271,0.4178829,0.06415769,3.2298,0.2500439,1.658599,-1.058923,1.264148,1.019611
13.22099,0.2370691,0.2656119,-0.426765,-0.7349585,0.2308173,-0.3858743,-2.566223,0.8922837,0.935077,0.4565545,-0.7452952,-2.891922,0.01043483,-2.414587,-2.236551,-0.4919803,2.621325,-3.893116,0.7908772,-0.7083761,0.6401124,0.8943728,0.6947841,0.9186974,0.8360917,0.560442,-0.1286809,0.607732,0.8645318,4.24334,0.5553576,0.2100282,0.4103661,0.05582617,3.831915,0.2481824,1.57766,-1.09372,1.271613,1.024904
13.34898,0.09465526,0.1853058,-0.6003858,-0.902598,0.08724996,-0.5401628,-2.759657,1.281623,0.7649874,3.222651,-0.9034736,-3.05532,-0.107359,-2.601802,4.877036,-0.6206521,2.423405,-4.293431,0.6836554,-0.9345617,0.6361715,0.8933932,0.6883304,0.8981939,0.9534653,0.5460672,-0.1299065,0.6787475,0.9918483,3.430573,0.5430758,0.2205848,0.416381,0.05457647,0.7669411,0.2404425,1.683993,-1.116214,1.27438,1.022855
13.47698,-0.06034291,0.03435161,-0.7625921,-1.049544,0.001399739,-0.672801,-2.907204,1.846266,0.6872537,4.299015,-0.7923691,-3.005211,-0.09466288,-2.432638,4.366457,-0.5386382,2.509145,-3.530233,0.90759,-0.4134452,0.6260786,0.8863549,0.683646,0.8779895,0.8971207,0.5309132,-0.1412194,-0.2955465,0.8546649,2.344118,0.5449576,0.2119229,0.4161676,0.06570432,0.06612537,0.2314638,1.66656,-1.035205,1.264865,0.9820628
13.60498,0.3064886,0.2856783,-0.3022953,-0.5281555,0.2955064,-0.1827121,-2.384648,1.910855,1.311037,1.618603,-0.4391401,-2.622741,0.1665516,-2.048828,3.198128,-0.2935053,2.678473,-3.16926,0.9902074,-0.2805699,0.6459787,0.9088618,0.7000845,0.9150374,0.9136598,0.5571763,-0.1090256,0.9171237,0.79208,2.057257,0.5582589,0.2106292,0.4182539,0.06195753,2.681735,0.2466984,1.558424,-1.023734,1.269233,1.023053
13.73298,0.4244233,0.4477459,-0.2368853,-0.5021269,0.3194081,-0.1384024,-2.330146,2.193688,0.9507506,4.01395,-0.4301265,-2.613551,0.1854516,-2.079135,2.522171,-0.280257,2.687048,-3.224114,0.9915684,-0.3034742,0.6519853,0.8854327,0.7036493,0.9268051,0.9403291,0.5704362,-0.1046244,0.4039205,0.9018349,1.576198,0.5578682,0.2126862,0.4272247,0.07199748,1.625051,0.2514911,1.597726,-1.034372,1.270741,1.019355
13.86098,0.4185615,0.4595132,-0.2390818,-0.5257596,0.5120451,-0.154027,-2.312649,2.293844,1.708472,2.293363,-0.4509348,-2.643203,0.1981758,-2.140862,3.4916,-0.3229038,2.956021,-3.409768,0.9283453,-0.4254828,0.6548419,0.8990662,0.7008342,0.9311259,0.8293726,0.5707703,-0.1102717,-0.282447,0.5641689,3.731782,0.552341,0.2143347,0.4298187,0.0764147,1.065329,0.2518638,1.580607,-1.058911,1.274588,1.032035
13.98898,0.3168351,0.4141829,-0.385573,-0.6673186,0.3801904,-0.2812169,-2.484955,-0.2234479,0.8752596,3.653607,-0.6249263,-2.783303,0.1161525,-2.330297,0.7634125,-0.4451933,2.624268,-3.831057,0.8299319,-0.6267085,0.648613,0.8781657,0.6893419,0.9146276,0.879707,0.5574672,-0.1138318,1.822748,0.863503,2.946964,0.5504027,0.212073,0.4210915,0.06094132,2.333817,0.2452475,1.519038,-1.079913,1.274119,1.020057
14.11698,0.1568986,0.247963,-0.5693533,-0.8466499,0.2627615,-0.4669703,-2.646591,1.281043,0.9719342,2.922954,-0.7914652,-2.949242,-0.01204838,-2.53158,1.866482,-0.5860728,2.699829,-4.238072,0.7377034,-0.8650334,0.6420462,0.890803,0.6817383,0.8972424,0.8463874,0.546815,-0.131928,-0.08678622,0.8677744,2.969669,0.5326639,0.2048426,0.4196597,0.05747268,3.395519,0.2395983,1.430314,-1.116037,1.271706,1.012753
14.24498,0.00143928,0.08326165,-0.6620218,-0.8916349,0.2734671,-0.5083051,-2.749731,1.23371,1.445776,3.141301,-0.5566898,-2.791116,0.08395435,-2.199092,-0.6595796,-0.4033166,2.758532,-3.303795,0.9999323,-0.2866885,0.6329859,0.8974435,0.676019,0.8738861,0.7659826,0.5295922,-0.1333865,0.5868469,0.3547923,1.509742,0.5458608,0.2100796,0.416421,0.06766599,2.578072,0.2370386,1.643192,-1.029101,1.254732,1.008605
14.37298,0.392817,0.3661501,-0.240327,-0.4477382,0.450367,-0.08165621,-2.273243,1.105766,0.8872191,3.680861,-0.3387714,-2.544492,0.2515259,-2.000245,-2.580732,-0.2413038,2.719372,-3.136893,1.047993,-0.2459905,0.6528333,0.8943027,0.6884151,0.9074183,0.857347,0.5666126,-0.1125511,0.9044906,0.8736836,2.134423,0.5485807,0.2114481,0.4240515,0.07184025,3.681848,0.2474871,1.605699,-1.029335,1.245839,1.026681
14.50098,0.4486068,0.4710238,-0.2137434,-0.4512447,0.582639,-0.06717661,-2.265231,2.736652,0.8250532,2.558864,-0.3428932,-2.540971,0.2550712,-2.027218,2.03436,-0.2424387,2.654049,-3.162992,1.03808,-0.2468453,0.6561008,0.8717406,0.6903577,0.9034598,0.8399784,0.5683252,-0.1110571,0.09463906,1.040157,2.918864,0.5418414,0.2088497,0.4288651,0.07395339,2.716858,0.249502,1.664243,-1.037404,1.248942,1.022457
14.62898,0.4569785,0.4890719,-0.2098972,-0.4885718,0.5892026,-0.07878307,-2.277792,0.4412405,0.458191,3.655131,-0.4228411,-2.599992,0.2299967,-2.119982,5.430131,-0.296755,2.887643,-3.39596,0.9730464,-0.396856,0.6563007,0.8930845,0.687755,0.9056351,0.7833314,0.5644128,-0.1233219,1.256587,1.168766,1.197226,0.5365636,0.2054821,0.423413,0.05934624,-1.445194,0.2483202,1.539192,-1.062431,1.246049,1.032605
14.75698,0.3403273,0.4049767,-0.352646,-0.6512814,0.4698579,-0.2297424,-2.447213,0.299158,1.491943,0.5338213,-0.5845752,-2.744977,0.1198179,-2.301684,0.8531787,-0.4158247,2.798348,-3.746207,0.8901739,-0.6016093,0.6491508,0.8856116,0.6864355,0.886546,0.8293328,0.5534045,-0.1272075,2.57247,0.522152,3.889661,0.5251088,0.2016658,0.4187572,0.05198052,3.055614,0.24187,1.420854,-1.100599,1.239113,1.023033
14.88498,0.1930561,0.2878126,-0.5191111,-0.7967249,0.2661045,-0.3862983,-2.608228,-0.7135369,1.072987,1.9071,-0.736071,-2.900146,0.01524521,-2.492098,-0.9270869,-0.5405251,2.620858,-4.117871,0.7978321,-0.802549,0.6397887,0.8907847,0.6788005,0.8538868,0.8435401,0.5303162,-0.1474828,2.190472,0.8077176,2.313679,0.5095241,0.195982,0.4060683,0.05126406,3.839079,0.2338617,1.445984,-1.110628,1.235359,1.012994
15.01298,0.07834554,0.1771258,-0.5612675,-0.7996191,0.1891958,-0.3977493,-2.661253,1.597707,1.387995,2.184833,-0.4827324,-2.701381,0.1050991,-2.131552,0.2243123,-0.3530872,2.827377,-3.221807,1.029483,-0.2762017,0.6353563,0.8872358,0.6744195,0.8423529,0.9073039,0.5195507,-0.139244,0.8107741,0.690757,1.91583,0.5228617,0.1965289,0.4127122,0.0580585,3.085906,0.2310978,1.40351,-1.031179,1.218721,1.002941
15.14097,0.4092763,0.3986559,-0.2479455,-0.4582269,0.5105911,-0.09649854,-2.298956,0.9056124,0.9597144,1.235183,-0.386292,-2.5768,0.1977284,-2.098124,-2.252262,-0.2925859,2.610074,-3.293317,1.006467,-0.3535917,0.6528633,0.9047212,0.6910265,0.8588973,0.8059928,0.5493425,-0.1267762,1.274883,0.9834509,2.905294,0.5198006,0.1945802,0.4110008,0.0673279,5.138166,0.2385999,1.659222,-1.045832,1.214757,1.031183
15.26897,0.3906748,0.4596016,-0.2736144,-0.5095434,0.3872923,-0.134664,-2.335772,1.112339,1.907748,1.883817,-0.4120333,-2.617539,0.1952498,-2.107051,3.533541,-0.3143127,2.48699,-3.307346,0.9976022,-0.3634814,0.6527931,0.8878057,0.6832141,0.8494416,0.8753683,0.5408348,-0.130933,0.9637383,0.4211062,2.21543,0.5213897,0.1943754,0.4109626,0.06041823,2.265222,0.2391458,1.688746,-1.048597,1.211219,1.014273
15.39697,0.3747531,0.4423587,-0.3103802,-0.5573668,0.5099377,-0.1855087,-2.387184,1.332308,1.322194,4.07318,-0.5086093,-2.710052,0.1464024,-2.234623,-0.9424207,-0.3971812,2.685899,-3.596807,0.9148349,-0.5253699,0.6503669,0.8889775,0.6786662,0.8395133,0.7861502,0.5389937,-0.1320562,0.9812175,0.5863535,1.096779,0.5056988,0.1923401,0.4059881,0.05368037,3.523708,0.2369128,1.515535,-1.079268,1.210543,1.02664
15.52497,0.2405287,0.3356771,-0.4684681,-0.7255652,0.3821685,-0.3363687,-2.590743,1.577865,0.5815016,2.732411,-0.6946045,-2.875525,0.03726688,-2.431142,0.7991885,-0.5291049,2.769811,-3.991948,0.8157309,-0.7514655,0.6390891,0.9002954,0.6722568,0.8149973,0.8279881,0.5209532,-0.1351697,0.7722329,0.7361912,2.924444,0.5000017,0.1941096,0.3980044,0.04686189,2.385969,0.2310159,1.313345,-1.105064,1.208861,1.020201
15.65297,0.07346521,0.190345,-0.6405222,-0.8877211,0.1926509,-0.5074053,-2.740257,0.2538514,0.902287,2.943551,-0.8858195,-3.033982,-0.08838243,-2.605709,5.802021,-0.654601,2.530328,-4.375348,0.7261706,-0.9609293,0.630208,0.9001194,0.6660589,0.7900077,0.8764932,0.5007097,-0.1610639,1.7311,1.04021,2.970334,0.4930142,0.1831253,0.3839896,0.03154013,0.8832723,0.2211323,1.398306,-1.122173,1.207741,0.9984264
15.78097,-0.03336299,0.09235695,-0.6498487,-0.8254241,0.1946012,-0.48785,-2.741488,1.030449,0.7696064,4.468781,-0.5463954,-2.7808,0.02460723,-2.20072,1.420296,-0.4204827,2.785164,-3.301669,1.000569,-0.320527,0.6210348,0.880181,0.6670818,0.7774767,0.817067,0.4872494,-0.1587836,0.990379,0.9765626,0.09460226,0.4963108,0.1789795,0.3910627,0.05702956,3.563474,0.2216367,1.551971,-1.030621,1.188946,0.9835451
15.90897,0.3564827,0.359638,-0.2698741,-0.4463321,0.2894019,-0.1055526,-2.342372,0.1128063,1.449568,3.512383,-0.4244761,-2.635151,0.1307627,-2.08496,0.06463417,-0.3133041,2.762555,-3.261214,1.00801,-0.3512436,0.6460559,0.89669,0.6833881,0.8113183,0.9295589,0.5225828,-0.1283579,2.091007,0.513057,0.8452644,0.4990351,0.1873322,0.3954576,0.05337135,2.558172,0.2296203,1.515348,-1.040103,1.183183,1.020178
16.03697,0.369467,0.380577,-0.2798356,-0.4884846,0.5069389,-0.1311057,-2.377693,-0.228723,0.810459,1.642395,-0.4509044,-2.668849,0.1270328,-2.116221,0.8826687,-0.3320767,2.589081,-3.279291,1.003148,-0.3618518,0.6448899,0.9124153,0.6761391,0.8106333,0.8218091,0.5259746,-0.1334467,1.983021,0.8001963,3.333179,0.5001574,0.18927,0.3910691,0.05056008,2.065914,0.232949,1.536983,-1.052463,1.179446,1.00002
16.16497,0.3607647,0.3685924,-0.3106166,-0.5317335,0.3427446,-0.1744403,-2.398609,0.9308401,0.8021374,2.619211,-0.5498466,-2.746406,0.09045398,-2.245974,-0.307043,-0.4064655,2.391754,-3.600957,0.9214914,-0.5383945,0.6449116,0.9077962,0.6737469,0.8013051,0.9440657,0.5199046,-0.1468996,-0.06001732,0.8896751,2.464901,0.4847245,0.1764359,0.3797713,0.03961764,1.95429,0.2282793,1.657591,-1.078206,1.179445,1.011009
16.29297,0.2206783,0.3016238,-0.4725431,-0.7073737,0.3246269,-0.3346815,-2.574558,0.5401857,-0.1031666,5.342534,-0.7350332,-2.910108,-0.03609958,-2.451797,1.959252,-0.5471825,2.438452,-3.999253,0.808154,-0.7672148,0.6364927,0.9031649,0.6616794,0.7807134,0.8156968,0.5032165,-0.1567767,1.765981,1.276965,0.3413792,0.4776752,0.1731964,0.3793074,0.03473225,3.451105,0.2226812,1.61328,-1.113217,1.179885,1.008786
16.42097,0.05487019,0.1680915,-0.6524244,-0.9043126,0.07695274,-0.517777,-2.769467,2.673124,0.9155928,1.212326,-0.9326971,-3.085185,-0.1715962,-2.651227,2.043699,-0.6873618,2.179729,-4.421246,0.7133884,-0.9868785,0.6276328,0.9029137,0.6490764,0.7635239,0.8822823,0.4853776,-0.1665931,-0.3905548,0.6484845,3.402881,0.4712729,0.1706836,0.36885,0.02472433,2.045444,0.2170715,1.561863,-1.131462,1.175961,0.9966361
16.54897,-0.1174725,-0.001188856,-0.8054855,-1.03343,0.05138642,-0.6497386,-2.932347,1.876511,0.8536466,2.00025,-0.790377,-3.025967,-0.1452584,-2.451548,1.268179,-0.5771276,2.393152,-3.524549,0.9505214,-0.4372861,0.6165552,0.9004194,0.6434174,0.7430289,0.8537142,0.4675167,-0.1765047,0.1929766,0.7586513,3.125856,0.4742903,0.1664356,0.3594089,0.04016985,3.084661,0.2045502,1.50413,-1.052084,1.155715,0.9493259
16.67697,0.2803734,0.2458198,-0.3277387,-0.4938021,0.3334086,-0.1621606,-2.408674,-0.8390486,0.8890501,5.139877,-0.505508,-2.708221,0.05291014,-2.138254,5.858915,-0.3612859,2.744372,-3.250559,1.002761,-0.3647503,0.6392994,0.9174802,0.6566309,0.7860756,0.8583822,0.5053118,-0.1420979,1.266459,0.7048196,-2.199476,0.4837017,0.1766646,0.3699435,0.05026158,-0.2918254,0.2237194,1.493164,-1.042905,1.158217,0.993521
16.80497,0.3541177,0.3315285,-0.2922229,-0.5085319,0.3684424,-0.1535725,-2.39814,0.9707975,1.149354,2.444323,-0.5104976,-2.720224,0.05145286,-2.169519,0.4247878,-0.3741941,2.651248,-3.312141,1.003406,-0.3819133,0.642827,0.9069617,0.659434,0.7902479,0.8811233,0.5116341,-0.1434413,0.3944363,0.7658914,2.952106,0.4758311,0.1692409,0.3677743,0.04436928,2.445365,0.2258061,1.544621,-1.054875,1.148187,0.9778552
16.93296,0.3506755,0.3831758,-0.3177251,-0.5330756,0.4848648,-0.1728361,-2.403102,0.1480918,0.7471998,4.019819,-0.5936595,-2.761053,0.03213681,-2.245623,2.233711,-0.4142529,2.675015,-3.54151,0.9345549,-0.5366895,0.642584,0.8989421,0.665432,0.7924645,0.8352531,0.5104397,-0.158257,2.417391,0.8654104,0.4186167,0.4806875,0.1656811,0.3667799,0.02974534,1.367125,0.2249819,1.504853,-1.077447,1.145839,1.000638
17.06096,0.2256536,0.2743784,-0.4629583,-0.7118808,0.1486267,-0.3247467,-2.590764,1.565477,0.9580451,2.175094,-0.7655609,-2.948341,-0.07698152,-2.475507,4.431053,-0.5524507,2.240861,-3.962471,0.8323927,-0.7544286,0.635317,0.9020272,0.6518068,0.7736591,1.003294,0.4969365,-0.1591382,0.7686769,0.856766,1.929938,0.4666238,0.1705606,0.3636919,0.03283618,0.08076209,0.2197289,1.642998,-1.114126,1.146141,0.9949805
17.18896,0.05582788,0.1396895,-0.6551434,-0.9016702,0.1270448,-0.5136915,-2.789989,-0.8056628,1.335424,1.874605,-0.9640036,-3.104012,-0.1967994,-2.672589,3.31763,-0.6971086,2.307906,-4.382411,0.7254899,-1.011645,0.6254576,0.8963398,0.6462997,0.7493395,0.8258027,0.475689,-0.1737138,2.183843,0.3789178,2.644805,0.4582039,0.1580065,0.3493894,0.02397835,0.8335614,0.210541,1.590349,-1.142385,1.145885,0.9822982
17.31696,-0.1113687,-0.01504964,-0.8371878,-1.076156,-0.0032696,-0.7005765,-2.993025,1.340648,0.8525646,3.524579,-1.147472,-3.296702,-0.3394423,-2.835246,1.915563,-0.8200169,2.14974,-4.401314,0.7693428,-0.8725261,0.6139064,0.8843541,0.6337298,0.724834,0.8228077,0.4605355,-0.1891742,0.294708,0.6695337,1.906426,0.4465826,0.1621528,0.345489,0.01248964,1.05793,0.2039053,1.567995,-1.123602,1.138152,0.9073247
17.44496,0.007497306,0.0283782,-0.5463562,-0.684424,0.1086025,-0.3904819,-2.662116,0.5422717,1.093298,1.77275,-0.6574985,-2.85384,-0.08966577,-2.300133,2.92979,-0.4839627,2.46903,-3.468137,0.9617968,-0.4425194,0.6175831,0.890478,0.6441741,0.740867,0.8677762,0.4669062,-0.1692806,1.23567,0.6668563,2.239825,0.4643427,0.1593926,0.3518588,0.04205982,1.389331,0.2146051,1.552647,-1.057525,1.131449,0.9624357
17.57296,0.2561393,0.2035161,-0.3756563,-0.540141,0.295877,-0.2501643,-2.509938,1.425393,0.8722861,0.1981608,-0.6796502,-2.841977,-0.05163858,-2.304032,2.353917,-0.4637334,2.39752,-3.560664,0.9460179,-0.499381,0.6308467,0.8939617,0.658501,0.7508175,0.7987823,0.4975468,-0.1605405,0.4043389,0.6885066,2.499144,0.4709028,0.1504436,0.3534074,0.02713631,2.794144,0.2175035,1.694759,-1.072211,1.130029,0.9635187
17.70096,0.2357057,0.2106362,-0.3801973,-0.5843106,0.3226316,-0.2634674,-2.534352,1.988294,0.3090543,2.566224,-0.6848042,-2.855382,-0.0615649,-2.327142,-1.359876,-0.4672211,2.483706,-3.61804,0.9276538,-0.5482938,0.6303387,0.8920679,0.6572502,0.7560651,0.8390102,0.4897133,-0.1686051,-0.2086627,1.235372,1.838565,0.4688944,0.1527939,0.354374,0.02522453,4.202606,0.2156579,1.537579,-1.084626,1.124369,0.9677851
17.82896,0.1874694,0.1810275,-0.4848129,-0.7045579,0.2502052,-0.3656404,-2.642812,-0.9290417,1.019885,5.500544,-0.8168182,-2.991762,-0.1326395,-2.515392,2.635687,-0.5795491,2.161072,-4.01822,0.8300766,-0.7500467,0.6219789,0.8932917,0.6549991,0.7459877,0.8651329,0.4818908,-0.1692831,1.991798,0.447881,1.473529,0.452819,0.1550054,0.3467225,0.02158402,0.6314195,0.2124316,1.618961,-1.10871,1.125729,0.9684303
17.95696,0.03033836,0.04985102,-0.6624037,-0.8795694,0.1414735,-0.544035,-2.822194,0.245836,-0.1951118,2.493214,-1.0159,-3.171678,-0.2516197,-2.716292,4.117594,-0.7146088,2.331689,-4.419657,0.7213846,-0.9979546,0.6170312,0.8877856,0.6415341,0.7215787,0.8012437,0.4676671,-0.1909149,1.307304,1.099196,2.8936,0.4449394,0.1562473,0.3395011,0.01084548,2.615266,0.2069192,1.460028,-1.146359,1.132026,0.9677737
18.08496,-0.1471721,-0.1069115,-0.8384136,-1.056258,-0.09547712,-0.7212172,-3.044106,0.7041757,0.3115937,1.848769,-1.209351,-3.332338,-0.3911074,-2.900989,-1.180463,-0.8446202,1.927235,-4.801244,0.6536162,-1.185154,0.6091586,0.8832505,0.6343108,0.7003021,0.8470083,0.4493567,-0.1928735,1.408739,0.7559866,3.16518,0.4341872,0.1470405,0.3302114,-0.0002630941,2.934288,0.1999029,1.599776,-1.162184,1.12212,0.9191039
18.21296,-0.2262375,-0.2111316,-0.7984227,-0.9685181,-0.03918904,-0.6838757,-2.982278,-0.04447002,0.6452662,0.6875708,-0.8578676,-3.075967,-0.2488164,-2.491896,-0.1124522,-0.6131081,2.534768,-3.756137,0.8929044,-0.6108005,0.5967377,0.8764637,0.6369515,0.7074488,0.81808,0.4418744,-0.2069577,1.917404,0.6941506,2.749761,0.445562,0.1496434,0.3371612,0.01482826,1.242426,0.2045199,1.46691,-1.073354,1.111026,0.9395915
18.34096,0.1083569,0.07577873,-0.495437,-0.6764526,0.1282533,-0.3988525,-2.685783,0.7859767,0.7854661,1.612818,-0.8489226,-3.016158,-0.2124327,-2.485976,3.635804,-0.5721217,2.493116,-3.884395,0.8555729,-0.6995304,0.6198997,0.869776,0.6479328,0.7256563,0.8472574,0.4692403,-0.1846673,1.219735,0.6341925,2.545732,0.4495328,0.1512311,0.3348893,0.008913961,0.3815756,0.2143686,1.440814,-1.096353,1.114242,0.9648804
18.46896,0.0773513,0.01188593,-0.5376229,-0.7613,-0.03946723,-0.4488888,-2.769743,0.8193307,1.583154,2.606698,-0.8765903,-3.029829,-0.2542073,-2.501425,1.586443,-0.5706359,2.506094,-3.885998,0.8577565,-0.6969383,0.6165832,0.8948333,0.6510454,0.7333994,0.8933815,0.4720561,-0.190571,1.549813,0.3934439,0.8369538,0.4550228,0.1529107,0.3304368,0.006652924,2.969598,0.2161503,1.481575,-1.09468,1.110154,0.9454036
18.59695,0.05363816,0.002992727,-0.5981643,-0.8120245,0.1299217,-0.4940783,-2.830834,0.2692578,0.7508529,1.81126,-0.9745122,-3.129086,-0.3099495,-2.650022,-1.880048,-0.6531869,2.440382,-4.230303,0.7589385,-0.8959733,0.6170512,0.9171605,0.6539683,0.72086,0.8136604,0.4639155,-0.197728,0.8032365,0.4810981,3.68353,0.4365537,0.1503237,0.3254282,-0.001170559,4.123816,0.2133111,1.459371,-1.116764,1.115522,0.9563999
18.72495,-0.09037806,-0.05550253,-0.7648773,-0.9986395,0.01185996,-0.6613265,-3.007809,1.300227,0.6521338,3.68375,-1.174148,-3.295305,-0.4284008,-2.847061,1.290175,-0.7968509,1.996961,-4.657517,0.6596932,-1.124416,0.6081876,0.8780184,0.6343797,0.7108701,0.860714,0.4451778,-0.2072583,1.416261,0.7093752,1.445452,0.4397084,0.1476936,0.3196269,-0.003823654,1.40898,0.2054458,1.660565,-1.148912,1.110407,0.9536073
18.85295,-0.2569504,-0.1996385,-0.9403824,-1.181695,-0.06168195,-0.8749892,-3.198736,0.442539,0.1758959,4.441497,-1.37107,-3.460512,-0.5704029,-3.045896,0.7483128,-0.9210565,2.167603,-4.951923,0.616182,-1.244458,0.5966696,0.8755467,0.6245834,0.6957422,0.829306,0.43838,-0.2192594,1.298749,0.7549446,0.9689329,0.4242471,0.1469119,0.3117619,-4.57422e-05,0.02163232,0.2004607,1.419244,-1.15655,1.108405,0.8946781
18.98095,-0.2728682,-0.2467193,-0.8101699,-0.9977025,-0.1019295,-0.7273182,-3.064761,1.794741,1.131131,5.408818,-0.9766659,-3.145667,-0.3778519,-2.563911,1.22674,-0.6542555,2.322376,-3.895617,0.8507839,-0.7382973,0.5966858,0.8964429,0.629998,0.7170132,0.8345143,0.4294715,-0.1984915,0.2094835,0.4213977,-0.3936819,0.4441955,0.1491149,0.3201235,0.002545273,3.147088,0.2046025,1.585548,-1.075947,1.093373,0.9383364
19.10895,0.0272607,-0.04846446,-0.5700254,-0.795973,0.04659063,-0.5190217,-2.804722,1.519561,0.6650755,1.365595,-0.9757032,-3.101563,-0.3489253,-2.590553,0.3138682,-0.6427317,2.247751,-4.068757,0.8047245,-0.8469371,0.6159105,0.9126295,0.6465335,0.7339727,0.8861825,0.4582818,-0.2012537,0.9361021,0.9203687,3.219843,0.4344038,0.1402774,0.3168073,0.001953562,3.300812,0.2113679,1.600504,-1.090482,1.09822,0.9578888
19.23695,-0.01551123,-0.01588392,-0.6072547,-0.8533183,-0.00458166,-0.5638326,-2.88149,-0.6177639,0.4505535,0.3572378,-1.008025,-3.105719,-0.3574837,-2.607259,0.7895151,-0.6498287,2.367434,-4.097372,0.7882162,-0.8634766,0.6100901,0.878256,0.6420041,0.737676,0.8485166,0.4538531,-0.1931869,1.676481,0.8149577,3.505203,0.4438993,0.1353144,0.3184214,0.001927939,3.121161,0.2098883,1.548202,-1.098012,1.099708,0.9478741
19.36495,-0.04603083,-0.0262449,-0.6898564,-0.9491135,0.0531624,-0.6455804,-2.944919,-0.5467,0.5728204,2.855926,-1.140509,-3.246481,-0.4213085,-2.760513,4.876869,-0.7455843,2.094274,-4.466735,0.6996517,-1.050087,0.6052302,0.8920118,0.6440847,0.7325535,0.8174551,0.4507309,-0.1946892,1.243737,0.7319072,0.9779508,0.433643,0.1452238,0.3145485,-0.001587712,-0.6844898,0.2072252,1.62928,-1.124687,1.098641,0.9568946
19.49295,-0.2107484,-0.189034,-0.8710656,-1.141483,-0.2220624,-0.8190348,-3.145058,1.041921,0.9039384,2.94134,-1.348135,-3.407726,-0.543682,-2.964771,-0.1976346,-0.8935802,2.061442,-4.90437,0.586381,-1.316165,0.601603,0.915835,0.6349401,0.723713,0.8934047,0.4357775,-0.2029365,-0.1145895,0.5349278,0.2886947,0.4291412,0.1422074,0.3115178,-0.001327652,1.136768,0.2006437,1.578952,-1.160443,1.103331,0.9607211
19.62095,-0.3948444,-0.3533233,-1.071363,-1.329933,-0.2579446,-1.025048,-3.348614,-0.5912869,0.07861384,2.618311,-1.539925,-3.577869,-0.6581409,-3.14503,-1.149198,-1.036536,2.029839,-5.21073,0.5607081,-1.400429,0.5946441,0.9285068,0.625148,0.715416,0.8359956,0.422413,-0.2089312,0.6847667,0.849589,1.157926,0.4155904,0.1415183,0.297016,-0.01044137,4.125091,0.1964968,1.445807,-1.154808,1.100042,0.884868
19.74895,-0.3801984,-0.3534513,-0.9026147,-1.068893,-0.2033959,-0.8396952,-3.140373,1.235652,0.9818184,3.253131,-1.045381,-3.200073,-0.4383291,-2.59503,1.497732,-0.7098365,2.322391,-3.988207,0.8250569,-0.7832282,0.5879337,0.9035364,0.6269923,0.729912,0.8689839,0.4169296,-0.2068647,-0.3653297,0.6544788,0.6258848,0.4417722,0.1454629,0.3165853,0.006946105,1.457582,0.1973364,1.489327,-1.067263,1.088359,0.9288887
19.87695,-0.01811594,-0.05623345,-0.5967425,-0.7957812,0.139508,-0.5594917,-2.815479,0.2051106,0.5107661,4.556281,-0.989751,-3.094066,-0.3507548,-2.535674,2.404441,-0.6490768,2.372777,-4.030314,0.816418,-0.8025408,0.6109259,0.8920468,0.6367258,0.7565479,0.8217694,0.4569079,-0.1937775,1.530748,0.5637248,1.179756,0.4461796,0.1402576,0.3206262,0.002821132,0.8223585,0.2047102,1.488256,-1.077367,1.091516,0.9406924
20.00495,-0.009100617,-0.05372808,-0.5971958,-0.8238599,0.03369416,-0.5688964,-2.831044,-0.3059833,1.107186,2.346705,-0.9518272,-3.093439,-0.3223933,-2.552579,1.576921,-0.6502994,2.398937,-4.013073,0.8139942,-0.8307834,0.6131397,0.9050316,0.6424708,0.7629187,0.8634308,0.4587887,-0.190484,1.303212,0.6547889,2.128477,0.4380311,0.1404847,0.3213224,0.01585925,2.150097,0.2050605,1.483691,-1.088003,1.091215,0.9441114
20.13295,-0.0233266,0.005339462,-0.6532794,-0.8927085,0.02724253,-0.6161516,-2.892459,-0.298997,0.4487325,2.097022,-1.073644,-3.180466,-0.3680454,-2.668067,3.542959,-0.7274018,2.292599,-4.334987,0.725404,-1.015851,0.6122593,0.8833395,0.6420397,0.7634286,0.9089645,0.4536974,-0.1857779,2.402976,0.8887194,2.196918,0.4416722,0.1441829,0.3250647,-0.002498669,-0.1309599,0.204484,1.479437,-1.115387,1.096964,0.964699
20.26095,-0.1615354,-0.1263974,-0.812622,-1.071923,0.0586363,-0.7803813,-3.043782,-0.1745702,0.2812301,4.79179,-1.253667,-3.316444,-0.4722531,-2.864569,3.532034,-0.8468029,2.121576,-4.770616,0.6174011,-1.241604,0.6075062,0.9133797,0.6295224,0.7525111,0.7940708,0.4484359,-0.1987414,1.754509,1.004632,0.894469,0.4393936,0.1354783,0.3201564,-0.0002262538,0.1267024,0.1991289,1.53855,-1.135665,1.107643,0.9625084
20.38894,-0.3243187,-0.2062579,-0.9926546,-1.239771,-0.213098,-0.9564014,-3.215791,1.737785,0.4432497,0.5734099,-1.449582,-3.482881,-0.5914914,-3.033977,0.148835,-0.9746903,2.016358,-5.051325,0.5785469,-1.325843,0.5984848,0.8796286,0.6223818,0.7395142,0.8571937,0.4335076,-0.2162078,0.2181039,0.7378421,2.608028,0.433479,0.1370451,0.3123416,-0.006374712,2.740211,0.1960221,1.589881,-1.151676,1.103584,0.8911714
20.51694,-0.3423724,-0.2416707,-0.8609968,-1.04816,-0.1658294,-0.7974092,-3.058517,-0.9981954,0.2585464,0.8721648,-0.9843272,-3.121701,-0.3725525,-2.514711,4.943258,-0.6681299,2.433682,-3.869851,0.8513056,-0.7224767,0.5967597,0.8911884,0.6291393,0.755821,0.8886949,0.4308576,-0.1988693,1.859897,0.9700395,3.704882,0.4540688,0.1438925,0.3207226,0.01441037,-0.2144188,0.1992726,1.472138,-1.05624,1.09509,0.9375228
20.64494,0.03104976,0.01303651,-0.5384268,-0.7489403,0.09332719,-0.4982611,-2.733386,-0.2916011,1.080375,2.794784,-0.8932012,-3.00416,-0.2753173,-2.42637,0.1508692,-0.5840006,2.287416,-3.826313,0.8493091,-0.7225308,0.6204678,0.9187707,0.6417954,0.7805774,0.8179144,0.4694813,-0.1800682,1.569957,0.6369181,2.085924,0.4612923,0.1512612,0.3309642,0.01428731,2.151354,0.2069068,1.548907,-1.075277,1.099714,0.9519617
20.77294,0.07141396,0.09675205,-0.5217593,-0.7580529,0.05964953,-0.4814987,-2.671115,1.909352,1.795139,2.511626,-0.8639444,-2.991204,-0.2389324,-2.39908,1.728696,-0.5836375,2.49601,-3.81034,0.8417735,-0.7153347,0.6189473,0.9069961,0.6399332,0.7865558,0.8963131,0.4711756,-0.2026934,-0.01641992,0.4012446,1.942279,0.4584582,0.1540352,0.3329342,0.003563337,1.392373,0.2092273,1.552632,-1.071271,1.106258,0.9526618
20.90094,0.06670085,0.1586381,-0.5717194,-0.8197549,0.1360822,-0.5213513,-2.722297,-0.04587463,1.135036,4.852509,-0.9661809,-3.048317,-0.2695987,-2.538363,1.80718,-0.6510066,2.457018,-4.127849,0.7547234,-0.9096873,0.6225058,0.8926157,0.6463284,0.7933573,0.8305756,0.47237,-0.19334,0.7403752,0.6165677,0.1345149,0.4629539,0.1460781,0.3331121,0.007648571,2.113079,0.2069229,1.729234,-1.093632,1.115626,0.9751804
21.02894,-0.05322343,0.04172592,-0.7068553,-0.9895938,0.1108288,-0.6763626,-2.880462,0.9858372,0.6079012,1.512742,-1.132867,-3.202568,-0.3558862,-2.714559,5.515137,-0.7701358,2.316076,-4.504514,0.6571768,-1.118372,0.615014,0.9168299,0.633806,0.7844878,0.8149998,0.465177,-0.2008892,1.05213,0.702351,2.294496,0.4612805,0.1584776,0.3316335,0.001289521,-0.1700835,0.2032238,1.454799,-1.123199,1.121185,0.9682943
21.15694,-0.2036664,-0.04003701,-0.8813884,-1.15235,0.02640395,-0.8388644,-3.064518,-0.1111002,0.5109782,4.115198,-1.305077,-3.357554,-0.4792727,-2.889799,-1.784934,-0.8942326,2.155944,-4.903642,0.5658442,-1.315275,0.6095331,0.8992831,0.6257259,0.7701008,0.8000676,0.4507364,-0.2069902,1.409728,0.8695722,0.9134929,0.4534162,0.1559977,0.3321847,0.001299382,4.242813,0.1979457,1.457677,-1.143805,1.12351,0.9551805
21.28494,-0.3406006,-0.2147657,-0.9450643,-1.171174,-0.2197488,-0.8844736,-3.117707,0.3763583,1.145136,1.567148,-0.997865,-3.150633,-0.3466181,-2.537448,0.239378,-0.6921424,2.258099,-3.85492,0.8351719,-0.6701503,0.6024731,0.9004781,0.6247979,0.7739913,0.9045228,0.4471173,-0.2054381,1.155171,0.4335859,0.5595516,0.4682925,0.1526507,0.3335017,0.01814119,2.791324,0.1945712,1.653733,-1.053892,1.112904,0.934636
21.41294,0.0664129,0.1039875,-0.5241346,-0.7154691,0.1214055,-0.4410054,-2.653443,0.325165,0.7504064,2.769909,-0.8091294,-2.92662,-0.1881277,-2.34879,0.08330623,-0.5462166,2.34672,-3.749674,0.862659,-0.6432211,0.6243957,0.900394,0.6437293,0.800414,0.865961,0.480488,-0.1793206,1.836461,0.9472045,2.903645,0.4708995,0.1631597,0.3402168,0.01931608,3.453851,0.2095909,1.737787,-1.058945,1.121538,0.971643
21.54094,0.1028306,0.1586531,-0.5013289,-0.7345871,0.1545101,-0.4453765,-2.636918,1.160569,0.3000436,2.814611,-0.7991052,-2.925375,-0.1758349,-2.359311,-0.203513,-0.545791,2.680144,-3.752666,0.8673409,-0.6297492,0.6298219,0.8836381,0.6459965,0.8122206,0.8433095,0.4927746,-0.186454,0.6836726,1.080081,1.517943,0.4741853,0.1575078,0.3438149,0.01892991,1.770325,0.209211,1.484822,-1.064768,1.124212,0.958139
21.66894,0.1219755,0.200806,-0.5023978,-0.7400905,0.1437628,-0.4625752,-2.653572,1.283771,0.9350196,2.731582,-0.8623452,-2.970471,-0.2015303,-2.437871,3.445366,-0.5908225,2.443492,-3.999361,0.8002449,-0.7763017,0.6273162,0.8895293,0.6488172,0.8061712,0.915688,0.4947667,-0.1835862,-0.1957738,0.4675612,1.38662,0.4719694,0.1617832,0.3498023,0.01319876,1.477196,0.2108642,1.584434,-1.087313,1.130606,0.9677297
21.79694,0.0003701622,0.1132542,-0.6409271,-0.901559,0.1296148,-0.5985079,-2.799381,0.8712592,1.132437,-1.253258,-1.021027,-3.119032,-0.2933136,-2.626231,3.209371,-0.7058742,2.344416,-4.381955,0.702805,-0.9784496,0.6216303,0.8906508,0.6434855,0.7991109,0.8185111,0.4896388,-0.1971364,0.6871818,0.5445314,4.136015,0.4676855,0.1666695,0.3457035,0.01280185,0.4732702,0.2115153,1.595704,-1.116088,1.138699,0.9669031
21.92494,-0.1593542,-0.02092974,-0.8093536,-1.070735,0.08111125,-0.7489477,-2.954173,2.583372,0.4858122,5.282004,-1.196415,-3.25969,-0.4011388,-2.807145,4.00432,-0.8208084,2.05697,-4.737848,0.6079786,-1.180961,0.6135347,0.9032919,0.6417572,0.7880852,0.7681318,0.4739936,-0.2124022,-0.8478964,0.6605229,-0.4156989,0.4599265,0.1609625,0.3387067,0.01073099,1.006398,0.202843,1.572589,-1.137477,1.141845,0.9659528
22.05294,-0.3161275,-0.1257401,-0.9559128,-1.205968,0.0148923,-0.8775467,-3.105738,2.198795,0.3070348,0.5061287,-1.09884,-3.244024,-0.4023629,-2.669643,0.4932627,-0.7596617,2.189133,-4.022508,0.7969461,-0.7182863,0.6018856,0.8998005,0.6361568,0.7680964,0.7321656,0.4585178,-0.219154,-0.3752854,0.8973271,3.752934,0.4625729,0.1576287,0.3390914,0.017863,1.460942,0.1951744,1.731229,-1.060282,1.131169,0.9280356
22.18093,0.01934563,0.1207302,-0.5496202,-0.7401343,0.1245429,-0.4806941,-2.680576,1.469475,0.8149211,4.126731,-0.8466423,-2.952625,-0.2192493,-2.38363,-1.564171,-0.5713018,2.585013,-3.816896,0.8243005,-0.6791677,0.6158859,0.8982721,0.6516397,0.7984264,0.8175994,0.4859304,-0.1822691,0.9380193,0.9422483,2.888499,0.4780222,0.1689073,0.3487499,0.02697348,1.715387,0.2066171,1.493695,-1.062948,1.129207,0.9669678
22.30894,0.03552637,0.1292927,-0.5697674,-0.8070902,0.2410718,-0.5055459,-2.698734,1.197236,1.481669,1.787024,-0.8796317,-2.980016,-0.2325768,-2.427832,1.081805,-0.5929467,2.458722,-3.870097,0.8028591,-0.7324958,0.6213692,0.9066056,0.6552625,0.8015173,0.8341546,0.4953626,-0.1933626,0.9014162,0.5288672,2.714239,0.4750161,0.1666714,0.3466849,0.0263642,1.667885,0.2055591,1.505511,-1.07128,1.136351,0.9620344
22.43693,0.03935024,0.2111432,-0.5717568,-0.8132794,0.2543826,-0.4981977,-2.695304,2.823113,1.426347,2.037816,-0.9269759,-3.016684,-0.2360671,-2.482042,2.81248,-0.6367994,2.3139,-4.070501,0.7407305,-0.8463501,0.6227017,0.8889549,0.6553804,0.8080224,0.8633615,0.4900362,-0.1914048,-0.2848155,0.5358542,2.615692,0.4779234,0.1693124,0.3472933,0.01696001,0.8686785,0.2104241,1.586127,-1.089288,1.139466,0.9726732
22.56493,-0.06262439,0.08847736,-0.714156,-0.9635153,0.1143177,-0.6388787,-2.86696,0.6903274,0.8717824,1.38463,-1.070268,-3.157572,-0.3260441,-2.647842,1.103966,-0.7461716,2.180188,-4.45271,0.6506974,-1.064397,0.615582,0.9140342,0.6454571,0.7929655,0.9036806,0.483446,-0.1811783,1.221254,0.7383786,3.139983,0.4636443,0.1676112,0.3468343,0.01148921,3.05883,0.2021511,1.66658,-1.120439,1.139752,0.9863176
22.69293,-0.224844,0.009220943,-0.8845097,-1.135083,-0.07353725,-0.8024872,-3.027405,-0.4319066,-0.125813,2.135153,-1.267785,-3.317267,-0.4473563,-2.824636,0.7912665,-0.8728666,2.134336,-4.86255,0.5365054,-1.266013,0.6107738,0.89461,0.6396073,0.777552,0.862339,0.4688293,-0.2029568,1.908859,1.034594,3.029272,0.4607317,0.1650725,0.3381342,0.005387243,1.58187,0.196604,1.612464,-1.138464,1.14913,0.9669527
22.82093,-0.3887628,-0.1536874,-1.028749,-1.254896,-0.1123267,-0.9204383,-3.16507,1.334293,1.031268,2.365211,-1.10927,-3.260103,-0.4120767,-2.631814,2.004044,-0.7712123,2.20492,-3.98498,0.7631187,-0.7439419,0.5995122,0.9040587,0.6320953,0.7583498,0.8560544,0.4538432,-0.2066443,1.444878,0.5725825,2.39801,0.4601971,0.1693176,0.3367207,0.02105359,0.9776751,0.1878974,1.686559,-1.065438,1.135332,0.9312446
22.94893,-0.009652681,0.14701,-0.5821202,-0.7681766,0.3043123,-0.4707662,-2.685786,1.297783,-0.03809826,1.491031,-0.8615667,-2.956361,-0.2319353,-2.369053,-0.707611,-0.5903065,2.605391,-3.812348,0.7882524,-0.7048283,0.6148176,0.9008549,0.6531505,0.7987042,0.7612607,0.4804648,-0.1822024,0.160598,1.46684,3.918945,0.4761957,0.1668039,0.346458,0.02908384,2.919096,0.2024462,1.557055,-1.058251,1.138271,0.9760558
23.07693,0.01301967,0.1470907,-0.5901698,-0.8157082,0.1783669,-0.5019153,-2.713765,0.1174792,1.239447,6.781471,-0.8855711,-2.973612,-0.2388418,-2.40085,-0.3101894,-0.5989883,2.139158,-3.861067,0.7825205,-0.7152485,0.6205851,0.9208744,0.6560202,0.7982007,0.8772982,0.4919858,-0.1805077,1.38796,0.8112616,0.1996918,0.470403,0.1633197,0.3455645,0.02397037,3.033023,0.1989949,1.718925,-1.066391,1.140419,0.9616333
23.20493,0.02282996,0.2138066,-0.5879415,-0.817978,0.2370353,-0.5233715,-2.709947,0.5618937,0.8604039,3.575744,-0.9301941,-3.010285,-0.2427287,-2.465067,1.865492,-0.6454291,2.429567,-4.074225,0.722715,-0.8570476,0.6172742,0.9050101,0.6536252,0.8007015,0.8424086,0.4958664,-0.1801351,1.843404,0.8498793,1.539654,0.4681243,0.164584,0.34738,0.020591,0.5583771,0.2042101,1.529195,-1.090454,1.139829,0.9817653
23.33293,-0.09400547,0.1196633,-0.7504243,-0.9759627,0.1112057,-0.6423739,-2.849433,2.184513,0.8331152,2.16358,-1.10847,-3.156379,-0.3447722,-2.641748,-0.2833998,-0.7565033,2.368701,-4.480277,0.6187569,-1.100624,0.6148387,0.9075766,0.6442651,0.785982,0.8675288,0.4812673,-0.1867685,-0.4419415,0.680914,3.817547,0.4629499,0.1665329,0.3432749,0.01256658,2.832249,0.1967915,1.513671,-1.119503,1.147488,0.9994293
23.46093,-0.2428582,-0.0002248086,-0.925192,-1.159752,0.05436972,-0.8051792,-3.044134,-0.3190619,0.6336274,2.176727,-1.282307,-3.308449,-0.4625102,-2.817549,1.611469,-0.88778,2.096285,-4.894157,0.5196208,-1.28391,0.6112015,0.9104124,0.6336989,0.7706564,0.8179835,0.4652147,-0.1964753,1.216423,0.7945291,2.826911,0.4503534,0.1578154,0.3365342,0.000743999,0.7930443,0.1939541,1.634399,-1.142915,1.14937,0.9786113
23.58893,-0.4085978,-0.1768676,-1.079573,-1.267124,-0.183653,-0.9320886,-3.182041,0.3374461,0.7044981,4.481088,-1.137687,-3.261229,-0.4410235,-2.62542,3.240781,-0.7751095,2.255403,-3.961924,0.761681,-0.7168498,0.6031368,0.9148049,0.6275483,0.7484031,0.8541199,0.4549959,-0.2120282,1.283971,0.6687633,1.673132,0.4623399,0.1663009,0.3396128,0.01896608,0.4155407,0.1838121,1.60614,-1.059952,1.139276,0.9367951
23.71693,-0.007848212,0.1203485,-0.5869427,-0.7423308,0.219034,-0.4561158,-2.655195,-0.3694945,0.6771516,2.623257,-0.84305,-2.920292,-0.2105065,-2.304328,1.651418,-0.5525415,2.425798,-3.694756,0.8152388,-0.6119434,0.6231554,0.9174165,0.6470376,0.7963759,0.8009855,0.4893705,-0.1797297,2.618161,0.9676883,1.666639,0.4741513,0.1706717,0.3433708,0.02947205,1.094884,0.1983257,1.66765,-1.04863,1.141138,0.9725726
23.84492,0.07559141,0.2330123,-0.5423991,-0.7568491,0.2086518,-0.4424493,-2.635141,1.415647,0.7967869,3.649832,-0.8473775,-2.925773,-0.2013178,-2.340732,-3.41913,-0.562776,2.480785,-3.736829,0.8205875,-0.6670148,0.6268592,0.9093618,0.6472821,0.8005123,0.8664793,0.4966189,-0.1799535,0.1633176,0.7728302,1.531944,0.4758055,0.1708578,0.3492166,0.03005394,6.583874,0.2026193,1.595429,-1.062387,1.137283,0.9833413
23.97293,0.08394991,0.2580003,-0.5460389,-0.7624183,0.3844651,-0.4405094,-2.631594,2.534657,0.785342,-0.3511648,-0.8668756,-2.949528,-0.1887554,-2.400454,-0.0420545,-0.5887182,2.408053,-3.934216,0.7543076,-0.7812583,0.627662,0.919879,0.6458452,0.8030205,0.7618313,0.4965149,-0.179949,0.5041144,0.9020599,3.252307,0.4700075,0.1700623,0.3465596,0.02927839,4.488326,0.2017092,1.539529,-1.084115,1.143846,0.9961567
24.10092,-0.0171784,0.2104622,-0.7013155,-0.9128924,0.1004965,-0.5692084,-2.796313,0.8751475,0.7342914,5.046315,-1.031382,-3.083274,-0.2729119,-2.584326,1.304243,-0.7033442,2.135275,-4.339895,0.655421,-0.9803621,0.6240231,0.8936369,0.6398733,0.7839838,0.9052537,0.4867956,-0.1806205,0.751446,0.8334328,0.1910166,0.4644005,0.1656634,0.3479188,0.01967772,2.008717,0.1961403,1.749949,-1.112628,1.146357,0.9889125
24.22892,-0.1747446,0.08739258,-0.8637655,-1.102924,0.04169879,-0.7442211,-2.953484,1.903149,0.3298191,3.288693,-1.212778,-3.259561,-0.3850019,-2.768318,-3.85124,-0.8302249,2.088548,-4.738914,0.5488956,-1.225788,0.6153466,0.9006585,0.6243712,0.7714276,0.8467737,0.4733451,-0.2015398,0.09087672,0.9462662,2.224241,0.4579091,0.1758536,0.3388235,0.01499944,3.588382,0.1913431,1.641734,-1.139343,1.149697,1.000426
24.35692,-0.3388646,-0.08540983,-1.049314,-1.265971,-0.1823709,-0.8917886,-3.136154,1.843364,0.5445394,0.7358107,-1.16134,-3.270804,-0.4369202,-2.699997,2.44539,-0.7986419,2.310046,-4.020123,0.7549258,-0.7085807,0.6070977,0.9090993,0.6240553,0.7551438,0.8629848,0.4532289,-0.2111272,1.002807,0.8854267,2.000757,0.4528558,0.1612198,0.3459431,0.0218014,2.493224,0.1767842,1.503804,-1.064019,1.140047,0.9361826
24.48492,0.0009174668,0.1699869,-0.5840908,-0.7256576,0.1741663,-0.441496,-2.655301,0.6543927,1.103061,1.097011,-0.7842973,-2.871759,-0.1640144,-2.266217,2.652991,-0.5287491,2.412661,-3.619571,0.8495682,-0.5544634,0.6258839,0.9062786,0.6397598,0.7915266,0.8535621,0.4889229,-0.167992,0.9398899,0.6890444,4.369746,0.472288,0.1691441,0.349451,0.02584155,1.450663,0.1966696,1.527324,-1.051869,1.137983,0.986311
24.61292,0.1174169,0.2768398,-0.5120469,-0.7210917,0.2376554,-0.3955894,-2.594742,2.02511,1.17461,3.860688,-0.7972457,-2.879758,-0.1520161,-2.308132,0.9560123,-0.530575,2.455623,-3.697407,0.8368199,-0.5871214,0.6310405,0.8972826,0.6443977,0.7978223,0.8986664,0.4969803,-0.1787578,-0.4176414,0.4791748,1.607977,0.4713834,0.1696615,0.3499791,0.02589037,1.112183,0.2000119,1.578811,-1.062112,1.142183,0.9776227
24.74092,0.1185805,0.2817511,-0.5166075,-0.7320771,0.2024406,-0.4121864,-2.599652,0.9132308,1.583029,4.011229,-0.8124868,-2.901624,-0.1230222,-2.35219,0.8304253,-0.5513878,2.593971,-3.8485,0.7913724,-0.6879416,0.6319204,0.9009914,0.6446527,0.8020269,0.9079227,0.5047724,-0.1824106,1.624518,0.3991512,1.908731,0.4689617,0.1741185,0.3496208,0.02295988,2.650183,0.1993774,1.538002,-1.080872,1.144997,0.9984353
24.86892,0.03165897,0.2593751,-0.6511793,-0.8791014,0.2688267,-0.5332002,-2.752382,0.6656569,1.239035,0.9805448,-0.9507325,-3.043234,-0.2120655,-2.548214,3.59769,-0.6590266,2.475712,-4.257133,0.6972609,-0.8959875,0.6298106,0.8747932,0.6346831,0.7890671,0.8204765,0.4965406,-0.1788341,1.870249,0.6616164,4.614719,0.456661,0.177006,0.347459,0.02292906,-0.2702478,0.1949113,1.490764,-1.109189,1.14304,1.001687
24.99692,-0.1150303,0.09970979,-0.8241984,-1.042647,0.04036456,-0.7074417,-2.93224,-0.0531388,0.9725962,6.180608,-1.136905,-3.205591,-0.31972,-2.708233,5.617241,-0.7835702,2.281152,-4.65256,0.5965101,-1.109513,0.6207625,0.9003946,0.6264798,0.7650805,0.8999031,0.483891,-0.1909516,1.129874,0.7085747,0.07738563,0.4548285,0.172772,0.3395842,0.01009588,-0.2723771,0.188215,1.472451,-1.135684,1.147786,0.9942082
25.12492,-0.2908501,-0.04251428,-0.9973916,-1.221163,-0.02971225,-0.8745088,-3.108965,-0.5076799,0.4714395,0.9806601,-1.217668,-3.30611,-0.422308,-2.776241,0.7429554,-0.8447755,2.277756,-4.230293,0.7378614,-0.7866628,0.6143484,0.9010547,0.6243285,0.7522324,0.8115406,0.4664714,-0.2044999,1.8633,0.9721229,4.142502,0.4484448,0.1656118,0.3359523,0.008554525,4.316486,0.1808723,1.578675,-1.096042,1.13264,0.9364202
25.25292,-0.05165483,0.08265983,-0.6128076,-0.7822846,0.1172026,-0.4931808,-2.727247,1.520841,0.6567423,4.228709,-0.8152977,-2.904931,-0.1837435,-2.308013,1.788156,-0.5411482,2.357994,-3.697755,0.8447385,-0.5786284,0.6202297,0.9001415,0.6381,0.7856275,0.8496367,0.4878232,-0.1687691,0.8279028,1.013429,0.5194824,0.4701732,0.1687828,0.350259,0.02790089,2.552509,0.1930569,1.627185,-1.058809,1.128375,0.9912658
25.38092,0.07554781,0.2178063,-0.5463887,-0.7744088,0.1543046,-0.4494987,-2.669759,1.706899,0.8282165,4.24081,-0.8591903,-2.931262,-0.1775114,-2.381139,3.708474,-0.5542668,2.575553,-3.801697,0.8169307,-0.6380584,0.6293716,0.9126565,0.6453092,0.7850823,0.8935295,0.4970916,-0.1794762,0.8816187,0.9138923,-0.03952806,0.4724706,0.1724705,0.3492143,0.02976261,2.948076,0.1941134,1.49736,-1.064423,1.131951,0.9826559
25.50892,0.07213267,0.2491559,-0.5356897,-0.7715672,0.2186979,-0.4387206,-2.669121,1.917203,1.25935,4.026413,-0.8496182,-2.932972,-0.1649015,-2.381111,1.781419,-0.5615507,2.292138,-3.897656,0.7800719,-0.7174402,0.6286293,0.9128358,0.6470348,0.7833267,0.8811026,0.4948508,-0.1775603,0.3459788,0.479738,0.543659,0.4724149,0.1738236,0.3524929,0.02013419,1.858329,0.1964047,1.561456,-1.071177,1.135662,1.003576
25.63692,0.009270891,0.2442337,-0.6555193,-0.9035764,0.2573261,-0.5511433,-2.787598,0.6817868,0.6204682,1.24197,-0.9901518,-3.033923,-0.2292724,-2.559886,-2.839873,-0.6630547,2.271574,-4.253026,0.680392,-0.9165596,0.6218495,0.905214,0.6404502,0.7746398,0.8251206,0.4869065,-0.1814719,0.4397645,0.7780522,2.618603,0.4601088,0.1627807,0.3421602,0.0159181,3.768283,0.1909641,1.597873,-1.109529,1.137952,1.000534
25.76492,-0.1447927,0.09902825,-0.8236995,-1.088317,0.1192109,-0.7318837,-2.96258,0.6087318,0.2495482,5.454231,-1.165776,-3.203014,-0.3538128,-2.75462,0.8458271,-0.7917717,2.187915,-4.644384,0.5847895,-1.158428,0.6135288,0.9191219,0.6297879,0.7572742,0.7990375,0.4787474,-0.1957483,0.6376417,1.001644,0.5456545,0.4537658,0.1647428,0.3419099,0.02218521,0.9930248,0.1868564,1.504055,-1.135553,1.133977,1.007598
25.89291,-0.3124738,-0.03166325,-1.004115,-1.260603,-0.02975767,-0.9013832,-3.165111,-0.6758509,1.122239,2.489373,-1.231514,-3.29688,-0.4462149,-2.772828,4.573077,-0.8257771,2.253086,-4.158469,0.7329459,-0.7625517,0.6086907,0.9041786,0.6266317,0.740473,0.845463,0.4647203,-0.1996811,2.007144,0.7875564,1.00693,0.4502971,0.1621341,0.3388833,0.01490201,0.9196299,0.1727357,1.55628,-1.080288,1.12384,0.9387984
26.02091,-0.04375869,0.1739463,-0.605143,-0.7951385,0.2733649,-0.4987358,-2.724174,1.567952,1.319009,3.841023,-0.808934,-2.902049,-0.1819599,-2.321204,2.372595,-0.545984,2.34652,-3.702505,0.8250991,-0.6040204,0.6200391,0.8929563,0.6438571,0.7736396,0.8256276,0.4846082,-0.1718944,0.7954978,0.5985325,1.38351,0.4599633,0.1656949,0.3412372,0.03448904,0.2118464,0.1936335,1.583919,-1.050927,1.122859,0.9923194
26.14891,0.070555,0.2797791,-0.5555457,-0.8032409,0.1139169,-0.4855929,-2.709196,2.05106,1.083925,2.479118,-0.8732158,-2.942595,-0.1908163,-2.381432,3.131722,-0.5650728,2.431823,-3.810276,0.8192104,-0.6726353,0.6275606,0.8998876,0.6535244,0.7766511,0.9310557,0.4983507,-0.1712817,0.28811,0.4149881,2.763812,0.460997,0.1716261,0.3388546,0.02455059,2.111203,0.1936479,1.657015,-1.065349,1.118665,0.9923285
26.27691,0.06040083,0.2740619,-0.5548329,-0.8060149,0.241741,-0.4833101,-2.712567,1.924531,0.6363809,1.329854,-0.8808765,-2.94046,-0.1914214,-2.403666,0.23498,-0.5770053,2.538521,-3.943115,0.7670329,-0.7604914,0.6266949,0.9167012,0.6504891,0.7792664,0.930796,0.4950875,-0.1698893,0.7200006,0.7766423,3.05974,0.463689,0.1669695,0.3448564,0.02229206,2.506231,0.194428,1.464605,-1.074205,1.124607,1.012318
26.40491,-0.02651265,0.2033464,-0.6888679,-0.9453306,0.1508013,-0.5936044,-2.836993,-0.123243,0.6303551,2.436369,-1.032999,-3.076832,-0.2704308,-2.58144,0.1718815,-0.687623,2.187106,-4.347098,0.670786,-0.9652818,0.6249957,0.930173,0.6427149,0.767565,0.8534213,0.4890359,-0.1781334,1.095212,0.9259734,0.5103375,0.4551288,0.1616308,0.3431897,0.01803966,1.79388,0.1891174,1.581037,-1.10517,1.125687,1.015043
26.53291,-0.16759,0.1019365,-0.8631021,-1.112907,0.1853993,-0.7572238,-3.036057,0.9177168,0.7361749,3.921109,-1.217229,-3.251143,-0.3847938,-2.759442,3.158187,-0.8164942,2.185352,-4.754166,0.5753664,-1.19842,0.6173297,0.9018359,0.6332925,0.7457882,0.8447838,0.4743097,-0.1847995,0.6234685,0.7455499,0.7779988,0.4468901,0.1651804,0.3333809,0.003089154,1.569301,0.1853899,1.564612,-1.133817,1.128152,1.013074
26.66091,-0.3373903,-0.06150569,-1.026735,-1.293277,-0.002727805,-0.9460219,-3.215491,-1.015023,0.4172674,3.457787,-1.314711,-3.366694,-0.481053,-2.842373,1.994667,-0.8666409,2.151923,-4.277756,0.7239916,-0.8045761,0.6116717,0.9078438,0.6173296,0.7366532,0.8046685,0.4649061,-0.1984908,1.750481,0.8552989,1.748346,0.4477354,0.1613508,0.3311983,0.02294844,1.766099,0.1725452,1.619682,-1.084403,1.11578,0.9422562
26.78891,-0.06966724,0.1466411,-0.6193778,-0.7871889,0.2527746,-0.5033487,-2.744187,1.666377,1.141081,3.863368,-0.8166203,-2.89786,-0.1845209,-2.274738,3.12826,-0.5213445,2.308755,-3.630073,0.855787,-0.5338954,0.6222146,0.9019386,0.642656,0.7683761,0.8197538,0.4826121,-0.1652694,1.014,0.4770392,0.219658,0.4645807,0.1663955,0.3412849,0.03043519,0.8663958,0.187448,1.611554,-1.039373,1.119869,0.9890907
26.91691,0.1137886,0.2931794,-0.4986914,-0.7225503,0.2356122,-0.4287856,-2.630394,1.566438,0.6095805,1.615158,-0.8100174,-2.87771,-0.1376187,-2.282978,-1.625503,-0.5170169,2.133461,-3.687603,0.8437325,-0.5947338,0.6361371,0.9118937,0.653723,0.7811837,0.8445805,0.5054844,-0.1689623,0.4067912,0.9171565,3.262529,0.4655249,0.169916,0.3393534,0.02147746,3.948131,0.1930279,1.863238,-1.051206,1.116707,0.9953982
27.04491,0.1268518,0.3260883,-0.505534,-0.726177,0.257318,-0.4304177,-2.626066,-0.2148549,0.8501299,-0.6691574,-0.7961205,-2.853814,-0.1260382,-2.308205,0.6870324,-0.5198122,2.43773,-3.770211,0.8138299,-0.6436478,0.635438,0.9006059,0.6532502,0.7810655,0.9048439,0.5087368,-0.167742,1.574406,0.862115,4.580433,0.4647572,0.1638766,0.3447149,0.02858999,3.256629,0.196495,1.557881,-1.065934,1.119187,1.005599
27.17291,0.07132404,0.2735747,-0.6110407,-0.8379631,0.2533382,-0.4940327,-2.736742,0.8916125,0.8185868,4.398231,-0.9610547,-2.986735,-0.2509409,-2.477259,-0.7833113,-0.6154963,2.448793,-4.182155,0.6930996,-0.8687254,0.6339867,0.9249448,0.6399882,0.7796343,0.8709546,0.5098642,-0.1678265,0.9145694,0.9273449,1.040458,0.4568371,0.1721125,0.326349,0.01779458,2.878408,0.1898881,1.479887,-1.109077,1.127458,1.020626
27.30091,-0.06871872,0.1826619,-0.7806905,-1.013899,0.145341,-0.6604434,-2.901013,1.125394,0.616861,3.889423,-1.154902,-3.154434,-0.3406084,-2.674279,5.015057,-0.7337265,2.294927,-4.597445,0.5995647,-1.067053,0.6264246,0.8830833,0.6280542,0.771476,0.7836688,0.5040539,-0.1840059,0.4152421,1.019937,1.559264,0.4569091,0.1607677,0.3330596,0.01756664,0.5378496,0.189979,1.569908,-1.128947,1.128516,0.9949809
27.42891,-0.3226291,-0.06393798,-0.9555469,-1.249264,-0.03632964,-0.8416557,-3.105386,0.08023507,0.3180644,2.844265,-1.169575,-3.236865,-0.3610559,-2.618929,-2.708109,-0.7121854,2.355544,-3.955045,0.7976782,-0.6570526,0.6039361,0.8747462,0.6233985,0.7400464,0.7923034,0.4809579,-0.1918825,1.014421,0.8798234,1.273255,0.4615421,0.1510723,0.3441162,0.02129769,5.031973,0.1832955,1.567235,-1.069215,1.115958,0.9505113
27.55691,-0.05237465,0.1016028,-0.5379179,-0.7721863,0.2845186,-0.3968022,-2.615706,0.5308129,0.5389143,2.813401,-0.783572,-2.839736,-0.08085705,-2.19834,2.768962,-0.4149148,2.38531,-3.555478,0.8851427,-0.4930329,0.6139782,0.8912897,0.6414953,0.7597467,0.7289708,0.5184387,-0.1674507,1.083074,0.7530738,2.163406,0.4817728,0.1561728,0.3448771,0.04472368,1.594783,0.2064179,1.676154,-1.038482,1.112641,0.9850742
27.6849,0.0822413,0.189106,-0.4435975,-0.7581164,0.2924113,-0.3759535,-2.571815,-0.2578402,0.8041122,-0.08907995,-0.7680226,-2.851875,0.003360607,-2.184541,1.02375,-0.3756604,2.637089,-3.541558,0.8818246,-0.5678696,0.6281959,0.88061,0.6440684,0.747611,0.846432,0.5283914,-0.1747009,0.5011854,1.051692,2.84016,0.4753002,0.1403033,0.3724509,0.04412753,0.9399015,0.2274003,1.440802,-1.02164,1.094092,0.9733776
27.8129,0.08691205,0.2864917,-0.4126072,-0.7191243,0.4261821,-0.3690663,-2.552867,0.572615,0.8908762,7.129097,-0.7343549,-2.843138,0.1287268,-2.180653,1.82017,-0.3272425,2.257693,-3.356473,0.8059207,-0.5184721,0.6325406,0.8878586,0.6583097,0.7472062,0.7825662,0.522347,-0.1850387,1.640746,0.7550622,-1.832587,0.4897139,0.1426701,0.3893671,0.05071377,0.2338968,0.2550494,1.757226,-0.9679092,1.067195,0.987725
27.9409,0.09504925,0.2632044,-0.5107176,-0.7953776,0.3300668,-0.4377918,-2.642622,1.937843,0.5443177,4.848335,-0.7795219,-2.872116,0.202655,-2.300151,1.03442,-0.3345515,1.638708,-0.7307644,0.5321154,-0.2158568,0.6462646,0.8722228,0.6439441,0.7425874,0.8192194,0.5246021,-0.208836,0.7901532,0.7931424,0.7373637,0.4994237,0.1458499,0.4144386,0.06036814,3.156801,0.3007878,1.857515,-0.2811114,0.9826167,1.332876
28.0689,0.02300555,0.2388137,-0.4581603,-0.9090977,0.4736064,-0.7287876,-2.828895,0.9983552,-2.189761,10.56467,-0.09053212,-2.640883,0.8958703,-0.9691104,3.196622,1.361212,-6.995197,6.706697,-0.4844255,-18.96134,0.6538494,0.8602268,0.6938506,0.7353114,0.8814271,0.4323157,-0.253655,1.056014,0.1119047,3.651297,0.7976531,0.2462277,0.6860778,1.241842,1.925872,1.459643,2.113902,2.754181,0.5344604,-0.784513
28.1969,0.4333432,1.238069,0.1251104,-1.164789,0.7673051,-0.880922,-2.684077,-1.837301,-4.672322,8.107937,0.06998482,-2.539686,1.086271,-1.206298,2.929898,1.71782,-4.287184,6.202734,0.5319272,-14.61453,0.777734,0.9158411,0.9192483,0.6105403,0.8471981,0.2779028,-0.2868325,0.4272807,-0.8853824,2.818754,0.7298678,0.1840133,0.7314123,0.7197248,1.71174,1.06932,1.098224,2.520261,0.8350658,-0.08658177
28.3249,0.4212061,0.5937887,0.02974026,-0.5236564,0.7416605,-0.1632275,-2.154033,-0.2088132,0.3212575,5.449259,-0.09022368,-2.535358,0.9011243,-1.697494,2.577056,0.7641841,-1.190118,3.456046,0.8131323,-3.068889,0.6715719,0.7179496,0.7703785,0.7366378,0.7628173,0.4722044,-0.1849344,0.06702404,0.3880847,1.759222,0.5740964,0.1368251,0.6061779,0.3196528,2.232256,0.5904614,0.925912,1.387378,0.9339149,0.6985719
28.4529,0.4544988,0.4349696,-0.02304161,-0.506175,0.6466134,-0.0764982,-2.162029,0.4755263,0.497133,6.179018,-0.1741943,-2.413786,0.7752132,-1.677137,2.813478,0.5382814,-0.3478422,1.606678,0.9683962,-2.598277,0.6935164,0.7061885,0.7490989,0.7375581,0.7910198,0.5126027,-0.2241547,-0.5037977,0.6503408,0.1343293,0.5329617,0.1464912,0.533354,0.3008386,1.37096,0.5033972,0.7868708,0.7511172,0.9903437,0.5186968
28.5809,0.4853787,0.3298668,-0.04940294,-0.5585737,0.5273025,-0.1458409,-2.276985,0.4447226,0.1601748,0.4477268,-0.2897098,-2.521057,0.7341319,-1.81332,0.4341942,0.4202441,-0.1522895,0.7752689,0.9559303,-2.627571,0.7163494,0.6823632,0.7432245,0.7116011,0.7903996,0.5051569,-0.2134504,-0.701948,0.6380212,4.898438,0.5285318,0.1532655,0.5286357,0.2868978,1.650593,0.4828816,0.9268064,0.5419679,1.014164,0.5185839
28.7089,0.3336158,0.1773567,-0.2040866,-0.6738438,0.4066388,-0.281171,-2.445277,0.3317481,1.094772,4.096713,-0.4218072,-2.581608,0.670938,-2.002164,2.679993,0.3159181,-0.1723218,0.5232304,0.8780245,-2.577423,0.7026299,0.7180485,0.7292643,0.6841771,0.7616093,0.4953163,-0.2288085,0.2766981,0.1766592,0.8352528,0.5115895,0.1615299,0.5217891,0.2771872,0.2569506,0.4827664,0.9426347,0.4902421,1.009369,0.5628781
28.8369,0.2756619,0.11623,-0.3435716,-0.7566879,0.3642588,-0.3518021,-2.578325,2.777926,0.364458,6.778596,-0.3157458,-2.50121,0.7205536,-1.742362,-1.727208,0.4237233,-0.06743275,1.022252,1.107284,-1.966166,0.7108489,0.6983647,0.712795,0.6857318,0.8062248,0.4882751,-0.2366479,-2.25159,0.7488134,-0.500943,0.5111107,0.1624094,0.5128976,0.2849461,2.659381,0.4726606,1.048636,0.5447079,0.9960561,0.5387734
28.9649,0.4801886,0.3382328,-0.01507809,-0.3759986,0.6230755,0.01012853,-2.089384,2.074003,0.9366581,0.1031834,-0.04708765,-2.161598,0.991968,-1.422727,1.857428,0.6600214,0.0713765,1.504786,1.117221,-1.637735,0.7072998,0.7040477,0.7192193,0.6948949,0.813544,0.516588,-0.2136476,0.09556806,0.551779,3.961207,0.5301875,0.1625194,0.5531583,0.3078767,2.09946,0.5154893,0.8949451,0.6274672,0.9760103,0.6606833
29.0929,0.4185502,0.3664018,-0.009480475,-0.4353541,0.6115253,0.006285212,-2.094378,-0.9205876,0.4892279,1.901971,0.0009062826,-2.163688,1.075861,-1.393104,-2.798829,0.6823932,0.07616946,1.654738,1.141437,-1.549793,0.6857767,0.6774902,0.7207111,0.6957855,0.7593831,0.5317048,-0.2189179,1.060051,0.8935325,2.322099,0.5406244,0.1393663,0.5604247,0.3062374,4.464275,0.525888,1.02901,0.6524662,0.9775215,0.6689454
29.2209,0.4542704,0.3812026,0.03518714,-0.4063296,0.7128182,0.0319212,-2.055251,1.557286,0.9203533,2.167351,0.02775159,-2.13754,1.171595,-1.378694,-1.687276,0.7005783,-0.08632465,1.822944,1.101763,-1.39797,0.6894538,0.6994531,0.728585,0.6896586,0.7014153,0.5309059,-0.2210427,-0.105295,0.629286,2.24232,0.5522249,0.1365712,0.5954065,0.3152065,3.829211,0.5376571,0.8971754,0.7133722,0.9790091,0.7462166
29.34889,0.3514024,0.3392891,-0.06573666,-0.5447974,0.4972067,-0.08448278,-2.158574,-1.775823,0.8509852,2.949986,-0.01749749,-2.236665,1.224993,-1.502484,3.130849,0.6444982,-0.04287021,1.95228,1.017038,-1.305547,0.6728809,0.7043917,0.7216157,0.684958,0.8258286,0.5217915,-0.2261026,1.389961,0.7170143,3.887923,0.55975,0.1343434,0.609709,0.3283134,1.200296,0.5565478,0.8756586,0.7574839,0.9634456,0.7985956
29.47689,0.2217384,0.2420526,-0.1757311,-0.6820294,0.5384519,-0.1981146,-2.277749,-1.250233,1.37021,4.85836,0.07901476,-2.222004,1.311951,-1.315028,-0.9144859,0.7352241,-0.04885443,2.521015,1.22392,-0.7656095,0.6692389,0.7051195,0.7205631,0.6704628,0.7501356,0.5094814,-0.2353274,0.9927856,0.3764514,1.627021,0.5742363,0.1243465,0.6323612,0.3464009,0.590995,0.5606622,0.7985305,0.8705618,0.9535007,0.843437
29.60489,0.4872227,0.448034,0.1870202,-0.2667897,0.7936924,0.2066258,-1.679869,0.3119212,1.944967,4.768741,0.4405388,-1.773552,1.606367,-0.9205258,4.18431,0.9722674,0.1687443,3.191848,1.300856,-0.4096715,0.6805785,0.7150472,0.734845,0.7011862,0.6849571,0.5275033,-0.2104927,0.9086593,0.4941778,0.02784864,0.5985137,0.1319553,0.6668035,0.3987825,0.8617713,0.5862086,0.6427534,1.012873,0.9551861,0.9717993
29.73289,0.550539,0.5895631,0.2473457,-0.2990859,0.8330512,0.1839065,-1.615262,1.360344,1.23142,3.095235,0.4774462,-1.707192,1.686615,-0.8867269,2.296744,1.035103,-0.2048622,3.305374,1.359703,-0.3131186,0.680949,0.7186576,0.7501827,0.6996834,0.7566012,0.5248486,-0.2243725,0.1869874,0.5465007,3.1906,0.6197259,0.1342552,0.6876464,0.4271634,1.467132,0.5988906,0.9731002,1.034114,0.95894,0.9871095
29.86089,0.5610536,0.6420395,0.290199,-0.2826737,0.801729,0.1860303,-1.556403,1.055488,0.6039735,6.950885,0.4984938,-1.678609,1.788318,-0.8833147,-1.001324,1.09805,-0.4833447,3.786805,1.307688,-0.2479324,0.6819094,0.7358655,0.7558804,0.6957121,0.7924083,0.519773,-0.2275116,0.8097952,0.9734803,-0.2215144,0.6307917,0.1209548,0.7191276,0.4553884,3.173804,0.6215779,1.055437,1.185943,0.9571439,1.10848
29.98889,0.4907657,0.6557992,0.2315679,-0.4465524,0.8873013,0.04014463,-1.678019,0.2150622,1.122043,5.092723,0.4205484,-1.781194,1.753943,-1.044074,-2.033229,1.067166,-0.6079544,3.858857,1.261594,-0.232721,0.6743281,0.74105,0.7700222,0.6789097,0.7241245,0.5001357,-0.2451741,0.3699986,0.5127208,2.158655,0.6330416,0.1285018,0.7303298,0.4676072,3.737084,0.6325745,0.8783596,1.219979,0.9631965,1.134075
30.11689,0.3860547,0.6069115,0.1023697,-0.5755979,0.8169065,-0.08060317,-1.871616,1.569894,1.201185,4.223224,0.3107511,-1.934473,1.705744,-1.177272,-0.5535938,1.019008,-0.5977886,3.79987,1.374651,-0.09560942,0.672407,0.7203987,0.7690338,0.6579446,0.6762796,0.4882794,-0.25558,0.2568735,0.5812576,2.341364,0.6178201,0.1260095,0.719918,0.4492218,3.589168,0.6206651,0.9063038,1.203778,0.9624601,1.086411
30.24489,0.5305721,0.6241849,0.3238536,-0.2070172,0.9041641,0.3002425,-1.398881,-1.373314,0.5416343,4.617108,0.8098207,-1.412583,1.941956,-0.5652663,1.727073,1.350069,-0.2257566,4.045269,1.601887,0.2265408,0.6851041,0.7396568,0.7675147,0.6922764,0.7368261,0.5097767,-0.2247746,1.822667,1.182765,2.369807,0.6362653,0.1460011,0.7203697,0.4522571,1.164432,0.628274,0.7916823,1.204995,0.9709547,1.107431
30.37289,0.7993568,0.8110417,0.4921227,0.03983491,1.093812,0.5098278,-1.194468,0.8749259,1.579532,5.835556,0.8911503,-1.304843,2.023422,-0.4868245,0.9081445,1.429925,-0.2641285,4.023835,1.635035,0.2441318,0.7131913,0.7590756,0.7755185,0.7135149,0.7459888,0.5305386,-0.2213558,0.9383559,0.5710927,1.838469,0.6308499,0.1491645,0.7234437,0.444623,1.783494,0.6304821,0.9503574,1.183988,0.9751683,1.114997
30.50089,0.8504772,0.907933,0.512066,0.02186492,1.09231,0.4937302,-1.175848,2.249074,1.92357,7.019122,0.9467272,-1.227119,2.096018,-0.4210181,5.946,1.417336,-0.2476533,4.084695,1.590759,0.1690281,0.7181974,0.7352189,0.7748427,0.7245055,0.7786484,0.5298274,-0.2178435,-0.1021477,0.4909629,1.423525,0.6393868,0.1589219,0.7373536,0.4701315,-0.1425418,0.6269736,0.9868591,1.194314,0.9601642,1.108798
30.62889,0.8712632,0.965828,0.4816945,-0.0720963,1.140281,0.3811405,-1.226228,0.2875904,1.508538,4.923959,0.8780664,-1.276959,2.097425,-0.5373312,3.887502,1.302165,-0.4843604,4.027106,1.470738,0.04253158,0.7231393,0.7600436,0.7807001,0.7134945,0.7963855,0.5089839,-0.2180707,0.7938935,0.7188497,2.783942,0.640621,0.1586906,0.7503884,0.4853782,-0.1063487,0.6160196,1.008285,1.197703,0.941227,1.101453
30.75689,0.8080965,0.9298688,0.3679755,-0.226558,1.127464,0.2029749,-1.378342,1.763242,1.809483,3.610572,0.8041019,-1.409573,2.068892,-0.6836838,2.719517,1.132557,-0.5491579,3.972307,1.344899,-0.1130614,0.7244132,0.7633885,0.7758967,0.7067714,0.7305778,0.4866878,-0.2146106,-0.3870594,0.4333957,3.439638,0.6398802,0.1438151,0.7517376,0.5041388,3.293917,0.5905976,1.017867,1.190222,0.9226498,1.097567
30.88489,0.6845558,0.866155,0.2319699,-0.3939933,1.006768,0.02847409,-1.520995,1.704287,1.661644,6.680849,0.8139927,-1.459939,2.051126,-0.6269614,-0.1794942,1.120391,-0.461883,4.248681,1.493688,-0.03812982,0.7172566,0.7553547,0.7750825,0.6906601,0.7537245,0.4617112,-0.2289096,-0.3621117,0.5903174,1.876516,0.6412164,0.1433701,0.760023,0.5243095,3.693246,0.5790312,0.8071295,1.259013,0.9031073,1.041031
31.01289,0.9373085,1.047384,0.6035773,0.1774159,1.263291,0.6379825,-0.8707734,2.229056,1.879526,4.143204,1.343356,-0.9081388,2.325687,-0.08239118,3.83166,1.450799,-0.3299515,4.505165,1.655453,0.1917261,0.734698,0.7761546,0.78455,0.7266328,0.7266176,0.5038562,-0.1854337,0.6027408,0.8482881,3.647598,0.6755574,0.1585435,0.7809284,0.5489339,0.5023029,0.6043429,0.9199215,1.291218,0.8982362,1.077344
31.14088,1.117768,1.250263,0.7645182,0.331791,1.49566,0.7939181,-0.6487691,2.172599,2.264898,3.67491,1.427258,-0.7765922,2.444253,0.0128855,-2.098804,1.539552,-0.3297403,4.596087,1.682394,0.1947152,0.741169,0.7799439,0.8007267,0.7374565,0.7179765,0.525793,-0.1884955,-0.1633387,0.5823999,3.057036,0.6777181,0.1684165,0.7936858,0.5581816,2.672212,0.6172227,0.9792213,1.306519,0.893202,1.065355
31.26888,1.173936,1.318772,0.7702323,0.3053776,1.440736,0.8187133,-0.6487784,1.873632,1.670809,4.551778,1.414973,-0.758863,2.405108,-0.05144479,0.9273538,1.554703,-0.3134615,4.432183,1.69393,0.2336145,0.7444118,0.7955164,0.802878,0.7352399,0.7865081,0.5319773,-0.1705593,0.5605806,0.747162,2.488516,0.6677889,0.17355,0.7790282,0.52334,1.676802,0.6005648,1.082037,1.243732,0.9210487,1.069139
31.39688,1.141756,1.24958,0.6163191,0.1688746,1.386117,0.7114043,-0.8683208,2.150584,1.326675,4.627053,1.185949,-0.933998,2.202836,-0.2895631,0.8204911,1.38949,-0.1628569,3.127253,1.652881,-0.5220793,0.7411347,0.764461,0.7700614,0.7430725,0.7533153,0.5526817,-0.1810107,-0.1256546,1.038268,1.619827,0.620726,0.1704759,0.7118701,0.466972,0.5552192,0.5461635,0.887884,0.876047,0.9566885,0.7893069
31.52488,1.002286,1.058765,0.4552221,-0.03028327,1.14077,0.5334372,-1.104935,1.495118,2.489215,4.561589,0.9626101,-1.13192,2.059577,-0.5320749,2.891427,1.223498,-0.1548334,2.257843,1.604196,-1.049363,0.733718,0.7436084,0.7461109,0.7281705,0.7724794,0.543134,-0.2036839,-0.1278577,0.3996411,-0.2616613,0.5994732,0.1694881,0.6711296,0.4562707,1.365376,0.5080885,0.9849621,0.6603599,0.9774932,0.6615396
31.65288,0.8679558,0.8704582,0.3107323,-0.1830787,1.025454,0.3644897,-1.398535,1.531267,1.254491,2.783579,0.7529641,-1.38084,1.858287,-0.8042014,0.4036368,1.054397,0.04118628,1.558982,1.531792,-1.396951,0.7320489,0.7371509,0.7453467,0.7074596,0.8139278,0.5286009,-0.2190213,0.5723047,0.5815358,3.883799,0.5549479,0.1756983,0.6265464,0.4183268,1.893555,0.4791915,0.6741918,0.4953027,0.9997551,0.5966298
31.78088,0.6654293,0.7004753,0.09530134,-0.3087959,1.015383,0.2682723,-1.653697,2.158597,1.071703,5.646058,0.8282862,-1.300122,1.78865,-0.5783518,2.441286,1.187365,0.05672265,1.779035,1.766709,-0.9479193,0.7161107,0.7073442,0.7183154,0.7045493,0.7469338,0.5289732,-0.2383702,-0.06561165,0.8141178,0.5114699,0.5527677,0.1766561,0.5920894,0.4198415,1.331111,0.4830826,1.050863,0.4698309,0.9911948,0.5225837
31.90888,1.055392,0.9024588,0.5296249,0.3420359,1.292975,0.8827173,-1.013032,0.0765971,1.502835,5.854251,1.114828,-0.9442517,1.909793,-0.2908598,5.025818,1.404722,0.4745091,1.872135,1.848173,-0.6431423,0.7463226,0.734672,0.7310174,0.7328488,0.7246792,0.5704044,-0.1945546,1.529651,0.809961,0.5557008,0.5603136,0.192798,0.5730749,0.4203472,-1.516578,0.5046713,0.8698316,0.4360132,0.9966134,0.6043929
32.03688,1.183442,1.034608,0.5920084,0.3397774,1.427597,0.8968217,-1.030965,1.629659,2.16361,2.942429,1.03345,-0.9910693,1.817912,-0.3387954,4.466233,1.385543,0.5017987,1.712575,1.828554,-0.621246,0.7630754,0.7254823,0.7300545,0.7415178,0.7091606,0.5846457,-0.1869293,0.8371656,0.5393792,2.455406,0.5358306,0.1887985,0.5478998,0.3909793,0.8616051,0.5041224,0.8328254,0.3873952,0.9864946,0.6187873
32.16488,1.170965,1.048001,0.5826616,0.2862467,1.254177,0.8661941,-1.098676,1.207578,1.52185,2.032575,0.916561,-1.107973,1.744758,-0.488414,1.26942,1.308195,0.5934284,1.436793,1.735664,-0.7556888,0.7527725,0.7283509,0.7128333,0.7502242,0.7536038,0.5818691,-0.2014724,0.025372,0.7669024,2.053011,0.5195976,0.1818892,0.5322338,0.3826062,1.54866,0.4969957,0.778734,0.3282212,0.983628,0.6274098
32.29288,1.014617,0.8935797,0.4326805,0.04558185,1.17619,0.6479187,-1.374322,1.071602,1.83393,3.359745,0.6531867,-1.37519,1.54318,-0.8058649,5.229987,1.09963,0.4898534,1.018254,1.588239,-1.023514,0.729624,0.7158479,0.7096041,0.7509199,0.7399551,0.5814372,-0.2174916,0.4195377,0.5357307,2.287604,0.4899632,0.1615112,0.4899957,0.3532142,-1.105569,0.4730927,0.877353,0.2543298,0.9767452,0.6283432
32.42088,0.8552858,0.7213621,0.2168917,-0.1701909,1.118497,0.4509464,-1.645163,2.944952,1.817683,3.926588,0.4359779,-1.607102,1.394185,-1.061607,3.144237,0.9133071,0.5885288,0.7472606,1.46828,-1.180111,0.7236182,0.7246078,0.6925303,0.7394255,0.7088102,0.5641499,-0.2369989,-2.124332,0.5453215,0.9841651,0.4736698,0.1527916,0.4654965,0.3290325,-1.319425,0.4554765,0.7438715,0.2259881,0.9708362,0.6108698
32.54888,0.6966346,0.5833662,0.04458687,-0.3377914,0.8614114,0.2974665,-1.868032,1.959119,1.742911,6.027506,0.2026022,-1.806309,1.182665,-1.338717,-1.624223,0.7150821,0.1361333,0.2910949,1.355669,-1.432226,0.7112589,0.6875384,0.6647603,0.7341151,0.7617528,0.5480633,-0.2551978,0.6145401,0.3241563,1.438527,0.4428422,0.1395462,0.4299109,0.3053804,3.267571,0.4332429,0.8590084,0.1586174,0.9672884,0.5885749
32.67688,0.6103193,0.4293966,0.01824629,-0.2758832,0.826662,0.3655469,-1.886971,1.440594,1.916139,4.060828,0.5037032,-1.56294,1.21002,-0.8870966,2.326947,1.009748,0.4981108,0.9823478,1.608996,-0.8110828,0.7047209,0.7005042,0.6606123,0.7395382,0.7897437,0.5466961,-0.247911,-0.05692066,0.5929289,1.993032,0.4581144,0.1554289,0.4121884,0.3147071,1.057329,0.4516287,0.6954608,0.2270343,0.9665307,0.6169849
32.80487,1.026151,0.6926933,0.3782862,0.08113396,0.9596105,0.7014814,-1.493296,1.738889,1.740061,5.333417,0.5807235,-1.437857,1.292385,-0.7804741,2.785947,1.096817,0.4238126,0.9834129,1.600358,-0.8299959,0.7395166,0.7189962,0.6749308,0.7774825,0.8586645,0.5799692,-0.222396,0.6678626,0.5364549,0.2987351,0.4629165,0.1541499,0.4121451,0.3341953,1.031313,0.462847,0.8965911,0.2142188,0.9643507,0.6352478
32.93288,1.017223,0.7032984,0.4202622,0.009701393,1.05873,0.643119,-1.540564,0.8516527,1.486392,3.407847,0.5088268,-1.504556,1.243631,-0.8450202,-0.6472192,1.053259,0.3465375,0.897085,1.580392,-0.8330069,0.7314446,0.6955258,0.6905801,0.7719544,0.7453548,0.5782891,-0.2289587,0.5677357,0.6779566,2.412716,0.4584566,0.1387551,0.3996313,0.3190961,3.545563,0.4580644,1.000264,0.1981207,0.9569651,0.6214048
33.06087,0.9685384,0.6567252,0.394033,-0.07706469,1.052065,0.5793244,-1.615387,-0.02858849,1.462956,3.716589,0.3811412,-1.631944,1.161601,-1.029613,3.963846,0.9498304,0.348494,0.624754,1.475605,-1.018282,0.7121419,0.7062799,0.6918967,0.7676749,0.7496579,0.5774621,-0.2412904,1.157978,0.5504345,1.525642,0.4458963,0.1409277,0.3848055,0.3081588,0.7523946,0.4555027,0.8596181,0.1572541,0.956857,0.626222
33.18887,0.8714989,0.5598798,0.2256225,-0.2633959,0.8346847,0.402806,-1.830318,0.2515849,0.1729781,5.417185,0.1883997,-1.820785,1.035296,-1.258632,-1.294902,0.7969042,0.09787384,0.3065338,1.351798,-1.283037,0.7169971,0.7027975,0.6726929,0.7483296,0.7790566,0.5649987,-0.2549235,0.9118432,0.9322336,1.740551,0.4321129,0.1349862,0.3741649,0.2921515,3.381259,0.44295,0.992047,0.1254362,0.9522628,0.6029396
33.31687,0.7077056,0.3962278,0.06650463,-0.4501327,0.6294922,0.217552,-2.035089,1.121337,0.8089526,2.757981,-0.01144123,-2.023877,0.8766598,-1.481659,1.639061,0.6245538,0.07008249,-0.01545159,1.218949,-1.560428,0.7074626,0.7078235,0.6703821,0.7292017,0.8220395,0.5425751,-0.2726454,0.1475182,0.7867915,3.107444,0.4269712,0.1210336,0.3626795,0.2820519,1.740196,0.4285914,0.8945984,0.08987881,0.94281,0.60214
33.44487,0.5371119,0.233536,-0.1020972,-0.6289238,0.6705421,0.04357684,-2.229346,0.9691334,0.6762502,3.441779,-0.01262681,-2.079317,0.802644,-1.405475,-0.26386,0.6179278,-0.06551114,0.3953563,1.351756,-1.199859,0.6944458,0.7135115,0.6633517,0.7162656,0.7500237,0.529588,-0.2839105,-0.5007223,0.9190648,2.602788,0.4197314,0.1171075,0.3468818,0.2931724,3.728554,0.4175225,0.9853523,0.1466476,0.925101,0.543121
33.57287,0.8181531,0.4117983,0.2530921,-0.2068949,0.8534729,0.4195854,-1.829076,0.862655,0.7481241,2.665014,0.2156291,-1.845122,0.9553932,-1.116084,1.223703,0.8043968,0.2667661,0.5369642,1.352765,-1.165645,0.7083647,0.7210066,0.6743196,0.7450727,0.7162465,0.5515051,-0.2644803,-0.1519262,0.9688451,3.260575,0.4336413,0.122597,0.3526754,0.2995394,2.201501,0.4324337,0.8706812,0.157012,0.925514,0.5856655
33.70087,0.8341707,0.424638,0.2289303,-0.2939399,0.6746181,0.3607576,-1.900047,-0.5748396,0.8897123,2.780428,0.1432943,-1.908994,0.8900015,-1.209964,4.909545,0.7395325,0.1534834,0.4542548,1.319208,-1.230648,0.7005458,0.7140696,0.6782903,0.7406409,0.8120296,0.5506501,-0.267051,0.2439469,0.6758822,2.117829,0.4271232,0.1151961,0.3477735,0.2965558,0.5031336,0.4328309,0.934825,0.1338715,0.9183224,0.5636042
33.82887,0.8215334,0.3975909,0.2039512,-0.3175278,0.826797,0.3179006,-1.961948,-0.4000293,1.176095,1.941413,0.06097557,-1.972382,0.8551516,-1.320191,4.666124,0.6753351,0.1729766,0.2262788,1.234481,-1.41635,0.7011548,0.6926151,0.6774571,0.732296,0.7299826,0.5491992,-0.2637628,1.344472,0.672412,3.84973,0.4211725,0.1085304,0.336761,0.2844062,-0.6811284,0.4274814,0.8035454,0.1187855,0.921841,0.5740257
33.95687,0.684232,0.2627131,0.05608881,-0.479996,0.7766531,0.1512774,-2.133073,2.730878,0.7413207,3.023387,-0.1311909,-2.147786,0.7128899,-1.567573,1.26287,0.5159994,0.1205924,-0.1192724,1.115125,-1.670745,0.6888543,0.7140825,0.6707006,0.7079763,0.6713805,0.5315183,-0.2781402,-0.8377058,0.7118576,1.982702,0.401003,0.09804062,0.3262707,0.2791658,2.333915,0.417531,0.7118086,0.07682005,0.9234782,0.5656665
34.08487,0.5004837,0.120258,-0.1263675,-0.6698044,0.46321,-0.04497349,-2.351317,0.1038595,0.8831062,2.368947,-0.3473627,-2.341106,0.5801222,-1.811291,-0.02357285,0.353873,-0.1699163,-0.4939196,0.9946316,-1.960852,0.6737642,0.7063185,0.6653006,0.6861434,0.7773211,0.5124753,-0.290231,0.4940984,0.6307091,1.890151,0.3936292,0.08941104,0.3145438,0.2745939,3.127711,0.4094625,0.7610732,0.04709217,0.9233823,0.5541064
34.21287,0.2830853,-0.0798504,-0.3030198,-0.8680628,0.2506658,-0.2293204,-2.554779,1.101325,0.1701053,3.430662,-0.3739787,-2.425645,0.4777817,-1.770362,1.073574,0.3290433,-0.1088622,-0.03856537,1.153038,-1.539323,0.6512195,0.6931221,0.6659664,0.6743428,0.7706091,0.4881072,-0.2980451,-0.6417293,0.6309167,2.728595,0.387048,0.09564136,0.3079767,0.2708978,1.23629,0.402429,0.8801664,0.09244171,0.9138742,0.4979642
34.34087,0.5898415,0.1128111,0.1263659,-0.3528626,0.5096179,0.2199235,-2.086345,0.1830996,0.7540921,3.823133,-0.005792784,-2.052572,0.6917102,-1.316289,-0.5439358,0.6372958,0.06613456,0.3023468,1.236733,-1.356543,0.6675055,0.7118477,0.6803082,0.7137298,0.7914785,0.5220928,-0.2732842,0.6739432,0.7536966,1.3377,0.4057349,0.1009403,0.3188321,0.294634,3.123967,0.4223653,1.003568,0.1265167,0.9120242,0.5484303
34.46886,0.699649,0.1908032,0.1914343,-0.3574311,0.6664783,0.2418173,-2.060093,0.5919175,0.9261687,3.384501,-0.04036468,-2.069352,0.6878053,-1.365614,0.7568906,0.6175561,0.1239527,0.2100506,1.207815,-1.429195,0.674326,0.6905981,0.6870642,0.7282594,0.740876,0.5316227,-0.2671474,-0.1062648,0.585297,1.759064,0.4064378,0.09825604,0.3208047,0.289313,3.000555,0.427251,0.8064141,0.1197221,0.9145947,0.5485717
34.59687,0.6904699,0.1990031,0.1782048,-0.3958234,0.6614524,0.2040173,-2.084352,-0.05137099,0.8030728,4.117593,-0.08377983,-2.099591,0.6809746,-1.444515,-3.015276,0.5636081,-0.01965808,0.08776798,1.133567,-1.568228,0.6666313,0.6960989,0.6840408,0.7363634,0.6978854,0.5333491,-0.2726577,0.912607,0.7588809,1.288848,0.4021562,0.09823452,0.3170742,0.2894382,3.194965,0.4246614,0.9240862,0.08924367,0.9190061,0.5597282
34.72486,0.5694737,0.1044288,0.03629911,-0.5914756,0.4947544,0.02737692,-2.23416,0.116165,0.3994525,4.797918,-0.2836485,-2.265224,0.5619149,-1.668265,1.589762,0.4113187,-0.2417785,-0.2817093,1.013845,-1.821896,0.6571578,0.6977841,0.6747005,0.7355433,0.7211026,0.5252319,-0.2920976,0.00626362,0.8080084,1.550806,0.4012891,0.09057581,0.3118097,0.2680687,1.685987,0.4168192,1.073129,0.05713145,0.923294,0.5462154
34.85286,0.3758963,-0.02643969,-0.1446713,-0.7908028,0.3405567,-0.1687466,-2.475594,1.555418,1.151741,2.989837,-0.4787726,-2.444999,0.4145029,-1.918649,1.09491,0.2450809,-0.3730781,-0.6492817,0.8857609,-2.123654,0.6425006,0.6919934,0.6626443,0.7252743,0.7510485,0.5056604,-0.2889951,-0.341773,0.307021,2.50253,0.3864416,0.08054711,0.3049409,0.2669878,0.4640735,0.4091505,0.9760623,0.02751869,0.9247381,0.545116
34.98086,0.1698546,-0.2079711,-0.3497348,-0.991738,0.2034446,-0.3594204,-2.671852,2.068806,0.5243397,0.7842801,-0.6775422,-2.633462,0.3012385,-2.118724,0.8072202,0.09661565,-0.2221534,-0.7535632,0.8954047,-2.016411,0.6224274,0.6890411,0.6565115,0.7167316,0.7188451,0.4879677,-0.3122686,-0.8112034,0.5741869,4.036129,0.3700858,0.08098486,0.2838114,0.2608354,1.792335,0.3991048,0.8396772,0.03572956,0.9275185,0.4478061
35.10886,0.277295,-0.171697,-0.1110056,-0.6567945,0.3367451,-0.08436847,-2.403357,0.141317,0.4109128,4.478507,-0.1716885,-2.217968,0.5174747,-1.505649,-1.280795,0.4529118,0.02957784,0.06040429,1.106113,-1.53372,0.6298795,0.689638,0.6637915,0.7462686,0.7108344,0.504977,-0.275433,0.9553458,0.7724693,1.765334,0.3961641,0.08251014,0.3061271,0.2870315,2.568796,0.4096075,0.833299,0.1062024,0.9244806,0.5179013
35.23686,0.5725937,0.02560218,0.1067744,-0.4713913,0.5447164,0.1059688,-2.18056,0.7104748,0.6432117,-0.03922151,-0.1475683,-2.156714,0.5637636,-1.465632,1.27669,0.4923419,-0.09976064,0.01998544,1.094853,-1.566028,0.6514383,0.7075971,0.6767879,0.7693053,0.7105981,0.5344266,-0.2724302,-0.0198021,0.6200138,3.918471,0.4026184,0.08529721,0.3110815,0.2769126,0.1961909,0.4175453,1.012173,0.09547481,0.9280612,0.5232465
35.36486,0.5728841,0.02458433,0.09023425,-0.5090393,0.5571656,0.06671584,-2.22505,2.173221,0.5783296,4.343791,-0.1576081,-2.158683,0.5654936,-1.514915,-3.173288,0.4588881,0.2756385,-0.02910481,1.068472,-1.627526,0.6471545,0.7088997,0.6752206,0.7694674,0.6672599,0.5318106,-0.2677455,-0.4279058,0.7135604,1.018286,0.4029807,0.07853445,0.316627,0.2809345,3.522686,0.4195153,0.786289,0.08278101,0.9328523,0.5329855
35.49286,0.5137582,0.03488788,-0.001241389,-0.628882,0.4271076,-0.03322121,-2.342688,-0.2925102,0.6645811,5.874392,-0.3037741,-2.314421,0.4970759,-1.745,-1.246988,0.3313601,0.0821818,-0.3908044,0.9476081,-1.867845,0.6466158,0.6915677,0.668069,0.7648867,0.6920604,0.5228666,-0.2701743,-0.002185972,0.6160604,0.2390274,0.3978098,0.08644637,0.3165364,0.278278,3.288942,0.4144478,0.8105232,0.05294585,0.9395335,0.5286335
35.62086,0.3255949,-0.1058699,-0.2109602,-0.8413047,0.2592726,-0.2326897,-2.532378,1.395279,0.5686285,-0.7839586,-0.5136651,-2.493553,0.3779078,-1.981153,-2.69885,0.1572572,-0.1602542,-0.7888439,0.8125299,-2.177949,0.6341951,0.683957,0.6562985,0.758543,0.71736,0.5138895,-0.2915767,0.04214608,0.4338387,3.941209,0.3940456,0.08248796,0.3108096,0.2662754,3.552846,0.4022209,0.9336274,0.02121101,0.9465343,0.5229156
35.74886,0.1302681,-0.3052371,-0.4011429,-1.03187,0.1409251,-0.4194758,-2.772251,0.2077184,-0.1419427,4.919248,-0.7076624,-2.660938,0.2328306,-2.195122,1.941421,-0.01289781,-0.2172259,-1.03911,0.7603619,-2.305671,0.6173854,0.6883291,0.6462692,0.7456277,0.7419835,0.4943046,-0.2876938,0.2965051,0.9326873,0.9290379,0.3761597,0.0694349,0.2993611,0.2547886,0.9318653,0.392997,0.7788953,0.0004767443,0.9414903,0.4594813
35.87686,0.1081175,-0.351715,-0.2784384,-0.8478112,0.03159366,-0.2688791,-2.622277,-0.4302349,0.1876723,7.057277,-0.300469,-2.330918,0.4093321,-1.683323,0.134607,0.2889116,0.2500123,-0.2055569,1.003326,-1.713136,0.6102877,0.6756131,0.658554,0.7640749,0.7931786,0.4943364,-0.2786638,0.6955939,0.7655542,-1.020225,0.4028398,0.08259167,0.309569,0.2825995,0.9042308,0.4019103,0.7499397,0.08826502,0.9383559,0.503705
36.00486,0.4448528,-0.08654031,-0.006642725,-0.6076282,0.3429034,-0.04168667,-2.334354,0.7619623,0.6469166,1.258569,-0.2453985,-2.247824,0.4764151,-1.643789,4.136257,0.3483467,0.1715054,-0.2192394,0.9838433,-1.738017,0.6367745,0.6930563,0.6700575,0.7870077,0.7165699,0.5291092,-0.2754409,-0.02166255,0.6700513,4.113512,0.403683,0.08220272,0.3108094,0.2856665,0.7593254,0.4095243,0.7456512,0.07081206,0.944606,0.5173275
36.13286,0.441579,-0.07637033,-0.02743915,-0.6594915,0.3673132,-0.06235399,-2.38624,0.8599825,-0.5307962,2.653733,-0.2637276,-2.275194,0.455482,-1.68358,0.2614889,0.3329875,0.02916619,-0.2489958,0.9625136,-1.788793,0.6384407,0.6876465,0.6681183,0.7902059,0.6976451,0.5225021,-0.2716311,0.5706736,1.262179,3.012847,0.4060972,0.08482774,0.3199149,0.2759062,1.801149,0.4114434,0.9445688,0.06703412,0.9505756,0.516658
36.26086,0.425956,-0.09400005,-0.1053263,-0.7462506,0.3253311,-0.1446147,-2.463277,-0.1601168,0.8443472,5.620866,-0.399517,-2.379227,0.403176,-1.847934,0.8190056,0.2259111,0.01934293,-0.5346586,0.8513228,-1.999388,0.6359757,0.6996751,0.6593999,0.7855166,0.7743912,0.5260625,-0.2802836,0.9559076,0.5735401,-0.1894585,0.4018784,0.08108412,0.3168149,0.2665079,0.4271324,0.4092368,0.9149529,0.03533268,0.9587625,0.5195949
36.38885,0.2624469,-0.1808738,-0.2755444,-0.941801,0.1502843,-0.3195363,-2.644099,0.2372181,0.4366055,1.026503,-0.5866971,-2.548489,0.2820989,-2.087321,5.746837,0.06581351,0.09978618,-0.9198508,0.7399886,-2.288271,0.6260366,0.6807061,0.6532496,0.7799034,0.740821,0.5090753,-0.2860381,-0.02178305,0.6632387,3.05583,0.3891178,0.07386532,0.3115666,0.261834,-1.363551,0.3971784,0.6423805,0.01218314,0.9569067,0.5122781
36.51685,0.06763671,-0.3522529,-0.4558747,-1.137895,0.069947,-0.515547,-2.838501,0.02239528,0.3431531,2.57177,-0.7907628,-2.72961,0.1385101,-2.288082,1.040056,-0.08419228,-0.469819,-1.115454,0.6972199,-2.345048,0.6123057,0.6825647,0.6497501,0.7671531,0.7268699,0.490529,-0.3062792,0.08355509,0.6943735,3.631598,0.3775928,0.07609711,0.3052983,0.2563056,0.1980547,0.3930631,0.929973,0.0001239225,0.9571912,0.4417895
36.64486,0.0840177,-0.3673064,-0.2804245,-0.9026747,0.1207666,-0.3494067,-2.673843,0.5584179,0.51954,2.783438,-0.3940381,-2.395184,0.3104255,-1.796572,2.317712,0.1985765,0.2605212,-0.3807101,0.8873754,-1.899277,0.6048329,0.688948,0.6563678,0.7824183,0.7138875,0.4972256,-0.2902778,0.2141802,0.5082864,2.382623,0.4005736,0.08549694,0.3186055,0.2791772,0.5063657,0.3993215,0.7094883,0.06870309,0.9508405,0.5002924
36.77285,0.33384,-0.1859282,-0.1156436,-0.7701007,0.180078,-0.2117679,-2.525258,1.308031,0.6706356,3.700666,-0.4420918,-2.413242,0.336284,-1.840735,1.676472,0.1868299,-0.07958502,-0.5220143,0.8320796,-2.029041,0.6243466,0.7002724,0.6675347,0.797411,0.773172,0.5237235,-0.2723876,-0.2421121,0.6274568,1.508511,0.402598,0.08745784,0.3146021,0.2719218,1.856618,0.4047934,0.8454024,0.06105191,0.9592183,0.5145514
36.90085,0.3027701,-0.1424455,-0.1605954,-0.8345211,0.3036022,-0.2409696,-2.549561,0.3800592,-0.2835739,2.173848,-0.4326241,-2.417772,0.3206964,-1.870835,-0.3365614,0.1682578,-0.04468021,-0.5469038,0.7895268,-2.05593,0.6209641,0.6799897,0.6674708,0.7991868,0.7211072,0.5164304,-0.2831835,-0.1056962,0.9920888,1.932296,0.3994698,0.08288233,0.3194682,0.2749324,2.597098,0.4023769,0.8674535,0.05543891,0.96649,0.5158479
37.02885,0.2504306,-0.1459031,-0.2548796,-0.9424716,0.2081363,-0.3413288,-2.661364,0.347447,0.2107515,5.469409,-0.603607,-2.539861,0.2437907,-2.058462,-0.7091466,0.05053559,-0.1508205,-0.8544827,0.6917772,-2.308953,0.6242291,0.6723583,0.6611779,0.7917,0.6777439,0.516001,-0.2772688,0.4331783,0.9049621,-0.2161781,0.3973286,0.08354229,0.3149772,0.2751321,1.907598,0.3984362,0.8608081,0.0249701,0.9659674,0.531442
37.15685,0.08317325,-0.3110685,-0.4415935,-1.124423,0.04819969,-0.500413,-2.849668,-0.1886145,0.5153743,1.300701,-0.8072492,-2.722142,0.1244578,-2.295533,-0.5223982,-0.1059385,-0.08393475,-1.229031,0.5666987,-2.599914,0.613223,0.7071547,0.6502234,0.7807432,0.7037739,0.4982724,-0.2876752,-0.2322015,0.7079569,2.984466,0.3861915,0.07966586,0.3059936,0.2734352,2.744634,0.3901801,0.5568925,-0.005069678,0.9688137,0.5350481
37.28485,-0.1097445,-0.4636745,-0.6444547,-1.331663,-0.1475522,-0.6985375,-3.047918,-2.098224,0.0167799,2.05865,-0.8921636,-2.838641,0.01068197,-2.32986,-1.100456,-0.1779613,-0.5211241,-0.8773598,0.6947883,-2.243812,0.5993423,0.6913257,0.6412727,0.7785864,0.7690028,0.4859168,-0.3074404,1.585604,0.7252581,3.191594,0.38325,0.07537145,0.3045519,0.262563,1.643086,0.3753882,0.975238,0.03063555,0.9603713,0.4411896
37.41285,0.1762271,-0.2910343,-0.2390259,-0.8296804,0.08177181,-0.2700068,-2.627342,1.280139,0.4141884,1.863094,-0.4271131,-2.427078,0.2657644,-1.796244,0.9738358,0.1647755,-0.00388049,-0.4075671,0.8116482,-1.9687,0.6138535,0.7116371,0.6563548,0.8022541,0.7872532,0.5057198,-0.264846,0.0003488646,0.7955003,3.275581,0.4013248,0.08986045,0.3195665,0.2897825,1.503108,0.3964193,0.7006714,0.08507572,0.9671385,0.4959736
