t_sec,abp_mmHg,resp_arbunit,spo2_unitless,scon_muS
0,84.69615,0.629368,0.9798071,5.598803
0.05043194,82.78893,0.5355557,0.9799718,5.598803
0.09948225,83.67896,0.5222366,0.9798071,5.598803
0.1502315,84.82329,0.4950194,0.9798071,5.598803
0.2003999,84.82329,0.4620112,0.9798071,5.598803
0.2500476,82.91606,0.4237913,0.9798071,5.598803
0.3006778,75.28716,0.394258,0.9799718,5.598803
0.349746,73.25277,0.2987082,0.9799718,5.598803
0.3994519,74.14281,0.2906008,0.9798071,5.598803
0.4504592,93.72369,0.2738072,0.9798071,5.592343
0.4999689,100.5897,0.2622255,0.9798071,5.598803
0.5507541,99.06393,0.2552765,0.9798071,5.598803
0.6003227,90.67213,0.252381,0.9799718,5.598803
0.6495665,86.73053,0.252381,0.9799718,5.598803
0.700296,85.84048,0.2448529,0.9798071,5.592343
0.7503951,89.14634,0.2344293,0.9798071,5.598803
0.8005239,86.60338,0.2234265,0.9798071,5.598803
0.8496941,80.88168,0.1898394,0.9799718,5.598803
0.8994824,76.94007,0.1516194,0.9798071,5.592343
0.9511994,75.41429,0.06938878,0.9799718,5.598803
1.000021,75.28716,0.06359793,0.9798071,5.592343
1.050478,88.5106,0.04854159,0.9798071,5.598803
1.099924,104.4042,0.04101337,0.9799718,5.592343
1.149615,102.8784,0.02016618,0.9799718,5.592343
1.200454,90.16354,0.0004772004,0.9798071,5.598803
1.249936,89.0192,-0.00589281,0.9798071,5.592343
1.301443,87.49342,-0.007051023,0.9798071,5.592343
1.349554,87.87486,-0.04411266,0.9799718,5.598803
1.400456,88.25631,-0.1674588,0.9798071,5.598803
1.450415,81.64457,-0.2641666,0.9799718,5.592343
1.499424,78.21156,-0.2769066,0.9798071,5.598803
1.551095,75.28716,-0.2954374,0.9898543,5.598803
1.599448,82.78893,-0.2728529,0.9898543,5.598803
1.650308,96.39381,-0.2676411,0.9898543,5.592343
1.700946,99.82683,-0.2317376,0.9898543,5.592343
1.749847,102.1155,-0.2346331,0.9898543,5.592343
1.800715,94.86804,-0.182515,0.9898543,5.598803
1.850224,88.63776,-0.09333527,0.9898543,5.598803
1.899675,89.2735,-0.0487454,0.9896896,5.598803
1.95094,90.29069,-0.0319518,0.9898543,5.598803
1.999384,89.78209,-0.01805367,0.9898543,5.598803
2.051508,86.34908,-0.01110461,0.9896896,5.598803
2.099509,77.83012,-0.03600549,0.9898543,5.598803
2.150226,76.17719,-0.05974816,0.9900191,5.598803
2.201055,79.3559,-0.05221994,0.9898543,5.598803
2.250138,91.05358,-0.03832181,0.9898543,5.598803
2.30068,99.44539,-0.0319518,0.9898543,5.598803
2.349608,100.9712,-0.03311001,0.9900191,5.598803
2.399342,93.2151,-0.03311001,0.9898543,5.598803
2.450466,88.25631,-0.03368907,0.9898543,5.598803
2.499959,89.78209,-0.05511542,0.9898543,5.598803
2.55134,91.05358,-0.1338715,0.9898543,5.598803
2.599841,90.92643,-0.2780647,0.9898543,5.598803
2.649612,81.64457,-0.2438985,0.9898543,5.598803
2.70143,80.11879,-0.2942793,0.9898543,5.598803
2.74971,78.59301,-0.2716948,0.9898543,5.598803
2.800964,97.15671,-0.2595339,0.9898543,5.605262
2.850464,98.6825,-0.1969923,0.9898543,5.598803
2.900092,99.06393,-0.2815393,0.9898543,5.605262
2.950623,97.9196,-0.3788263,0.9898543,5.605262
3.000213,90.16354,-0.4257326,0.9898543,5.605262
3.051191,90.16354,-0.5247568,0.9898543,5.605262
3.099428,89.78209,-0.6492609,0.9898543,5.605262
3.149705,92.07076,-0.785926,0.9898543,5.605262
3.201207,83.55181,-0.8154596,0.9896896,5.605262
3.249961,83.17036,-0.8664194,0.9898543,5.605262
3.300443,79.73734,-0.9405429,0.9896896,5.605262
3.35046,78.84731,-0.9747092,0.9900191,5.605262
3.399727,98.6825,-1.01872,0.9898543,5.605262
3.450706,98.55534,-1.129326,0.9898543,5.605262
3.500475,101.7341,-1.378913,0.9900191,5.605262
3.551302,93.46941,-1.442613,0.9896896,5.605262
3.599975,90.16354,-1.443771,0.9898543,5.605262
3.649977,90.67213,-1.514999,0.9898543,5.605262
3.700977,91.68932,-1.623289,0.9896896,5.605262
3.749334,91.30788,-1.647032,0.9898543,5.605262
3.800455,82.40748,-1.594335,0.9898543,5.605262
3.849757,81.13599,-1.45072,0.9898543,5.605262
3.899421,78.72016,-1.424661,0.9898543,5.605262
3.950457,78.97446,-1.133959,0.9898543,5.605262
4.000501,97.9196,-0.9862908,0.9898543,5.605262
4.051239,97.53816,-0.8276204,0.9898543,5.605262
4.099425,99.82683,-0.6289929,0.9898543,5.605262
4.150209,94.2323,-0.5288104,0.9898543,5.605262
4.200802,88.38345,-0.4106762,0.9898543,5.605262
4.249456,88.25631,-0.2386867,0.9898543,5.605262
4.300579,88.38345,-0.08522799,0.9898543,5.605262
4.350159,88.89205,-0.03079369,0.9898543,5.611721
4.400186,82.02603,0.03695979,0.9896896,5.605262
4.451084,78.21156,0.08097059,0.9898543,5.605262
4.500291,77.83012,0.1255605,0.9896896,5.605262
4.551418,83.80611,0.1967885,0.9896896,5.605262
4.600224,97.15671,0.2552765,0.9898543,5.605262
4.649912,97.53816,0.3073944,0.9898543,5.605262
4.700715,97.9196,0.3716734,0.9898543,5.605262
4.749954,88.7649,0.4359523,0.9898543,5.605262
4.800728,86.98483,0.4741722,0.9898543,5.605262
4.850286,88.12916,0.5141294,0.9898543,5.605262
4.899666,89.40065,0.5361347,0.9898543,5.605262
4.951202,89.0192,0.5442418,0.9898543,5.605262
4.999494,80.50024,0.5477164,0.9900191,5.605262
5.050703,78.59301,0.5390302,0.9898543,5.605262
5.099954,76.55863,0.5349766,0.9898543,5.605262
5.149963,77.83012,0.5343975,0.9900191,5.605262
5.200837,81.39028,0.5367138,0.9898543,5.605262
5.249917,98.30104,0.5343975,0.9900191,5.605262
5.301199,97.28386,0.5152875,0.9898543,5.605262
5.350572,87.11198,0.5071803,0.9898543,5.598803
5.399424,85.07759,0.4788048,0.9898543,5.605262
5.450702,86.34908,0.394258,0.9898543,5.598803
5.499441,87.87486,0.3681988,0.9898543,5.605262
5.551331,88.7649,0.2981289,0.9898543,5.605262
5.59982,80.88168,0.2506437,0.9898543,5.605262
5.649578,76.55863,0.2130029,0.9898543,5.605262
5.701436,75.03284,0.08849871,0.9898543,5.605262
5.750206,76.17719,0.07633785,0.9898543,5.605262
5.801421,91.68932,0.04564612,0.9898543,5.605262
5.849945,98.6825,0.00858437,0.9898543,5.605262
5.900332,98.30104,0.002793519,0.9898543,5.605262
5.950641,92.19792,0.001635307,0.9898543,5.598803
6.000321,86.73053,0.001635307,0.9898543,5.605262
6.05133,86.22193,-0.01052556,0.9896896,5.598803
6.100575,87.87486,-0.03253096,0.9898543,5.605262
6.149708,88.25631,-0.06322269,0.9898543,5.598803
6.200907,82.02603,-0.1610887,0.9898543,5.598803
6.249643,80.50024,-0.2253676,0.9900191,5.598803
6.301575,76.55863,-0.312231,0.9896896,5.598803
6.349494,74.52426,-0.3631909,0.9898543,5.598803
6.400014,75.03284,-0.3915663,0.9896896,5.598803
6.450922,93.34225,-0.4448425,0.9898543,5.598803
6.49995,100.2083,-0.4998559,0.9898543,5.598803
6.550713,101.7341,-0.5270731,0.9898543,5.598803
6.600235,90.67213,-0.5351804,0.9898543,5.592343
6.649434,88.5106,-0.5502368,0.9898543,5.598803
6.701446,87.74771,-0.6712664,0.9898543,5.598803
6.749402,88.12916,-0.7378616,0.9898543,5.592343
6.80054,87.87486,-0.7807142,0.9898543,5.598803
6.850095,79.61021,-0.8942157,0.9898543,5.598803
6.900309,78.08442,-0.9115884,0.9900191,5.598803
6.950819,77.32152,-1.061573,0.9896896,5.592343
7.000042,75.79574,-1.194184,0.9898543,5.592343
7.050646,85.07759,-1.282785,0.9898543,5.592343
7.100441,92.07076,-1.332007,0.9898543,5.592343
7.149791,97.53816,-1.360962,0.9898543,5.592343
7.200913,98.30104,-1.365015,0.9896896,5.592343
7.250052,96.39381,-1.356329,0.9900191,5.592343
7.300881,90.16354,-1.341852,0.9898543,5.592343
7.349426,90.29069,-1.345326,0.9900191,5.592343
7.399482,90.67213,-1.354592,0.9898543,5.592343
7.450685,86.34908,-1.366753,0.9898543,5.592343
7.499438,80.88168,-1.415396,0.9898543,5.592343
7.551262,79.3559,-1.424082,0.9896896,5.592343
7.599398,76.94007,-1.537005,0.9896896,5.592343
7.650435,74.14281,-1.633713,0.9898543,5.592343
7.70056,77.70296,-1.600705,0.9896896,5.598803
7.750166,86.60338,-1.41308,0.9898543,5.592343
7.800658,99.06393,-1.337219,0.9898543,5.592343
7.849638,91.94361,-1.173337,0.9898543,5.592343
7.899951,94.48659,-1.030302,0.9898543,5.598803
7.95095,87.49342,-0.9000066,0.9896896,5.592343
7.999554,87.36626,-0.7969287,0.9898543,5.598803
8.050412,88.7649,-0.6208856,0.9898543,5.598803
8.099956,89.40065,-0.5548694,0.9898543,5.598803
8.149816,78.84731,-0.519545,0.9898543,5.605262
8.200549,78.59301,-0.4691642,0.9896896,5.605262
8.251309,76.94007,-0.3996735,0.9896896,5.598803
8.300036,74.65141,-0.4014107,0.9898543,5.605262
8.349854,74.14281,-0.3336574,0.9898543,5.605262
8.400432,83.17036,-0.234054,0.9898543,5.605262
8.450181,99.57254,-0.1078126,0.9896896,5.605262
8.501313,92.19792,-0.05221994,0.9898543,5.605262
8.549808,92.45221,-0.01052556,0.9898543,5.611721
8.600553,89.0192,0.06880973,0.9898543,5.611721
8.650445,87.36626,0.1794157,0.9896896,5.611721
8.700562,88.25631,0.3386652,0.9898543,5.611721
8.751308,88.25631,0.6756952,0.9898543,5.61818
8.799558,79.3559,0.7463442,0.9898543,5.61818
8.850655,77.70296,0.5320811,0.9898543,5.62464
8.899901,73.88851,0.3068154,0.9898543,5.62464
8.949433,72.61702,0.1979466,0.9898543,5.62464
9.000554,71.09124,0.070547,0.9900191,5.62464
9.049807,92.83366,-0.1529815,0.9898543,5.631098
9.099806,98.30104,-0.7812933,0.9898543,5.631098
9.150434,87.49342,-1.408447,0.9898543,5.631098
9.199991,81.26313,-1.91515,0.9898543,5.637558
9.25108,76.17719,-1.905885,0.9898543,5.637558
9.299842,75.92289,-2.588052,0.9898543,5.637558
9.350092,77.83012,-3.531388,0.9898543,5.637558
9.399705,78.21156,-4.615443,0.9898543,5.637558
9.449428,75.28716,-5.890019,0.9898543,5.637558
9.501432,73.37991,-5.973987,0.9898543,5.644017
9.549678,71.47269,-5.962405,0.9898543,5.637558
9.599525,70.70979,-5.966458,0.9898543,5.644017
9.65064,74.26996,-5.965879,0.9898543,5.644017
9.699553,88.25631,-5.965879,0.9896896,5.644017
9.75052,88.7649,-5.966458,0.9896896,5.644017
9.79942,84.0604,-5.965879,0.9898543,5.650476
9.849472,79.3559,-5.965879,0.9898543,5.650476
9.900147,78.33871,-5.965879,0.9896896,5.650476
9.950639,78.33871,-5.965301,0.9896896,5.644017
10.00126,78.46587,-5.965879,0.9898543,5.650476
10.04965,77.19438,-5.965879,0.9898543,5.650476
10.09964,73.50706,-5.965879,0.9898543,5.650476
10.14949,71.59984,-5.965879,0.9896896,5.650476
10.20015,71.09124,-5.965879,0.9900191,5.656935
10.25089,71.98129,-5.965879,0.9900191,5.650476
10.29967,84.95044,-5.965301,0.9896896,5.656935
10.35015,87.11198,-5.965879,0.9898543,5.656935
10.39999,83.29751,-5.965301,0.9898543,5.656935
10.45043,79.3559,-5.965879,0.9896896,5.656935
10.50137,78.97446,-5.965879,0.9898543,5.656935
10.54944,79.3559,-5.965879,0.9898543,5.656935
10.60063,79.73734,-5.965301,0.9898543,5.656935
10.64964,79.3559,-5.965879,0.9896896,5.663394
10.69965,74.14281,-5.965879,0.9896896,5.663394
10.75064,73.50706,-5.964142,0.9898543,5.663394
10.79989,73.37991,-5.958351,0.9896896,5.663394
10.85063,83.67896,-5.754511,0.9896896,5.663394
10.89963,87.62056,-5.393739,0.9898543,5.669853
10.9499,86.85767,-5.308034,0.9896896,5.669853
11.0014,84.82329,-5.18353,0.9896896,5.669853
11.05041,80.75454,-5.063658,0.9898543,5.676312
11.09992,80.24594,-4.9102,0.9898543,5.676312
11.14991,80.62739,-4.641502,0.9896896,5.682772
11.20005,80.50024,-4.32474,0.9898543,5.68923
11.25071,78.21156,-4.104687,0.9898543,5.68923
11.30037,75.41429,-4.300998,0.9896896,5.68923
11.35017,73.37991,-4.651347,0.9898543,5.69569
11.39974,76.94007,-4.986639,0.9898543,5.702149
11.44989,87.11198,-4.948999,0.9896896,5.708608
11.50126,88.7649,-4.975058,0.9898543,5.715067
11.55,87.49342,-5.235647,0.9898543,5.721527
11.60065,84.44184,-5.275605,0.9896896,5.734445
11.64963,82.91606,-5.43196,0.9896896,5.740904
11.70037,82.53461,-5.493343,0.9896896,5.747364
11.75101,82.02603,-5.650276,0.9898543,5.753822
11.80038,82.02603,-5.845428,0.9896896,5.760282
11.8504,79.3559,-5.954298,0.9898543,5.7732
11.90014,78.46587,-5.967617,0.9898543,5.786119
11.9495,77.44867,-5.965301,0.9898543,5.786119
12.0009,84.3147,-5.965301,0.9896896,5.799037
12.05054,91.81647,-5.966458,0.9896896,5.805496
12.09993,91.81647,-5.965879,0.9896896,5.811954
12.14992,91.05358,-5.965879,0.9898543,5.824873
12.19977,87.87486,-5.966458,0.9898543,5.831332
12.25169,86.73053,-5.965879,0.9898543,5.844251
12.30064,85.58618,-5.965879,0.9896896,5.85071
12.35066,85.33189,-5.965879,0.9898543,5.863628
12.40026,84.82329,-5.965301,0.9898543,5.870087
12.44964,83.67896,-5.965879,0.9898543,5.883006
12.50161,82.78893,-5.965879,0.9898543,5.895924
12.54954,82.15317,-5.966458,0.9896896,5.902383
12.60066,82.78893,-5.965879,0.9898543,5.915301
12.64985,86.73053,-5.965879,0.9898543,5.921761
12.69978,93.72369,-5.965879,0.9898543,5.934679
12.75091,92.96081,-5.965879,0.9898543,5.947598
12.80037,91.43503,-5.965879,0.9896896,5.954056
12.84988,89.90925,-5.965301,0.9896896,5.960516
12.89962,88.25631,-5.965879,0.9898543,5.973434
12.94999,88.00201,-5.966458,0.9896896,5.986352
13.00116,87.74771,-5.965301,0.9898543,5.99927
13.05018,87.36626,-5.965879,0.9896896,6.00573
13.0996,87.49342,-5.965301,0.9898543,6.012189
13.15062,87.49342,-5.965879,0.9898543,6.025107
13.19961,87.87486,-5.822266,0.9896896,6.038026
13.25075,87.87486,-5.236227,0.9898543,6.044485
13.3004,89.78209,-4.563904,0.9896896,6.057403
13.35003,91.05358,-3.766499,0.9898543,6.070321
13.39973,92.07076,-3.211152,0.9896896,6.07678
13.45055,91.81647,-2.783784,0.9898543,6.089699
13.50144,91.81647,-2.502347,0.9896896,6.096158
13.55054,92.32506,-2.380738,0.9896896,6.102617
13.6005,92.57936,-2.337306,0.9898543,6.121995
13.65038,92.57936,-2.319933,0.9896896,6.121995
13.70037,92.19792,-2.33499,0.9896896,6.134913
13.7513,91.94361,-2.279976,0.9898543,6.141372
13.80036,91.81647,-2.275923,0.9896896,6.15429
13.8496,91.81647,-2.121306,0.9898543,6.16075
13.90003,92.07076,-1.748951,0.9900191,6.173668
13.95052,91.68932,-1.442034,0.9896896,6.180127
14.00086,90.67213,-1.204607,0.9898543,6.186586
14.05064,90.29069,-0.9955563,0.9898543,6.193046
14.10026,89.78209,-0.9029021,0.9898543,6.205964
14.14998,88.25631,-0.8357277,0.9898543,6.212423
14.19988,86.73053,-0.792296,0.9898543,6.218882
14.25137,86.22193,-0.8004032,0.9898543,6.225342
14.3005,84.44184,-0.8009824,0.9898543,6.225342
14.35,83.55181,-0.8056151,0.9898543,6.23826
14.40024,82.53461,-0.8276204,0.9900191,6.244719
14.44952,81.64457,-0.9231702,0.9898543,6.244719
14.50125,80.11879,-0.8606285,0.9896896,6.244719
14.54962,78.59301,-0.8137223,0.9900191,6.264096
14.59988,78.08442,-0.7610252,0.9898543,6.270555
14.65,77.83012,-0.7146981,0.9898543,6.270555
14.69961,75.79574,-0.6515774,0.9898543,6.277015
14.75118,75.03284,-0.630151,0.9900191,6.289933
14.79985,74.14281,-0.6052502,0.9898543,6.296392
14.85022,72.99847,-0.5867193,0.9896896,6.296392
14.89987,72.61702,-0.5861403,0.9900191,6.302852
14.95065,71.98129,-0.539813,0.9898543,6.30931
15.00073,71.09124,-0.5207031,0.9898543,6.322229
15.05023,71.47269,-0.5143332,0.9898543,6.322229
15.09974,71.09124,-0.5259149,0.9896896,6.328688
15.15015,70.32835,-0.5936684,0.9898543,6.335147
15.19973,69.94691,-0.7778187,0.9898543,6.341606
15.25088,70.20119,-1.033776,0.9896896,6.348066
15.30062,69.56546,-1.276415,0.9896896,6.354525
15.34986,68.29397,-1.911096,0.9898543,6.360984
15.39972,68.29397,-2.082507,0.9898543,6.360984
15.4506,68.29397,-2.08714,0.9896896,6.367443
15.50062,68.29397,-2.102196,0.9896896,6.367443
15.55035,67.91252,-2.129992,0.9898543,6.373902
15.60063,67.53107,-2.247547,0.9896896,6.380362
15.65038,67.53107,-2.682443,0.9896896,6.380362
15.70013,67.14964,-3.795453,0.9898543,6.380362
15.75063,67.53107,-5.31035,0.9896896,6.386821
15.80062,67.53107,-6.004679,0.9896896,6.39328
15.84962,67.14964,-5.960667,0.9898543,6.39328
15.89962,67.14964,-5.966458,0.9896896,6.399739
15.95012,67.53107,-5.965879,0.9896896,6.399739
16.00087,68.03967,-5.965879,0.9898543,6.399739
16.0499,67.91252,-5.965879,0.9898543,6.406198
16.10038,68.03967,-5.965879,0.9898543,6.406198
16.15011,68.29397,-5.965879,0.9896896,6.412657
16.19968,68.29397,-5.966458,0.9896896,6.412657
16.25148,68.54827,-5.965301,0.9898543,6.412657
16.30051,68.29397,-5.965301,0.9898543,6.419116
16.35051,68.42112,-5.965879,0.9896896,6.419116
16.40051,68.80257,-5.965879,0.9898543,6.425576
16.45,68.42112,-5.965879,0.9898543,6.425576
16.50122,67.91252,-5.965879,0.9898543,6.425576
16.54959,67.91252,-5.965879,0.9898543,6.432034
16.60058,67.78539,-5.965879,0.9896896,6.425576
16.64973,67.91252,-5.965879,0.9898543,6.432034
16.69995,67.53107,-5.965301,0.9896896,6.432034
16.75118,67.91252,-5.965879,0.9896896,6.432034
16.79965,67.78539,-5.965301,0.9896896,6.438494
16.85066,67.14964,-5.965879,0.9898543,6.438494
16.90051,67.14964,-5.965879,0.9896896,6.438494
16.95052,66.76819,-5.965301,0.9898543,6.444953
17.00108,66.13245,-5.965879,0.9896896,6.444953
17.05021,65.62385,-5.965879,0.9898543,6.444953
17.10061,65.62385,-5.965879,0.9898543,6.444953
17.1499,65.24241,-5.964142,0.9896896,6.451412
17.19976,65.24241,-5.95256,0.9896896,6.451412
17.25155,65.11525,-5.964721,0.9898543,6.451412
17.29966,65.24241,-5.953719,0.9898543,6.451412
17.34986,64.86096,-5.931713,0.9896896,6.457871
17.40024,64.73381,-5.726136,0.9898543,6.457871
17.45008,64.86096,-5.464967,0.9898543,6.457871
17.50064,64.86096,-4.941471,0.9896896,6.457871
17.54961,64.86096,-4.768902,0.9898543,6.457871
17.60045,63.97092,-4.561009,0.9896896,6.457871
17.64984,62.82658,-4.498467,0.9896896,6.457871
17.70034,61.68224,-4.485148,0.9898543,6.464331
17.75085,61.5551,-4.332268,0.9898543,6.464331
17.80062,61.17365,-4.002767,0.9898543,6.470789
17.85024,61.3008,-3.637362,0.9898543,6.464331
17.89985,60.66505,-3.401672,0.9896896,6.464331
17.95063,61.17365,-3.399356,0.9896896,6.464331
18.00101,61.17365,-3.285854,0.9898543,6.464331
18.05038,61.17365,-3.359399,0.9896896,6.464331
18.10023,61.3008,-4.107003,0.9900191,6.470789
18.15073,61.5551,-5.476549,0.9896896,6.470789
18.20068,62.31799,-6.017418,0.9900191,6.470789
18.25161,61.68224,-5.956035,0.9896896,6.470789
18.29983,62.06369,-5.967617,0.9896896,6.477249
18.35062,61.80939,-5.965879,0.9898543,6.470789
18.40013,61.68224,-5.965879,0.9896896,6.470789
18.44961,61.5551,-5.965879,0.9896896,6.470789
18.5006,62.06369,-5.965879,0.9896896,6.470789
18.5504,61.68224,-5.965879,0.9896896,6.470789
18.60024,61.93654,-5.965301,0.9898543,6.470789
18.64959,61.93654,-5.965301,0.9898543,6.470789
18.70037,62.31799,-5.965879,0.9896896,6.470789
18.75063,62.44514,-5.966458,0.9898543,6.470789
18.80064,62.06369,-5.966458,0.9896896,6.470789
18.85036,61.93654,-5.965879,0.9898543,6.464331
18.90034,61.93654,-5.965879,0.9898543,6.470789
18.9496,62.06369,-5.965879,0.9898543,6.470789
19.00065,61.93654,-5.965879,0.9898543,6.464331
19.05038,62.06369,-5.965879,0.9896896,6.470789
19.0996,62.44514,-5.965879,0.9896896,6.470789
19.14982,62.44514,-5.965879,0.9898543,6.470789
19.20061,62.69943,-5.965301,0.9900191,6.464331
19.25142,62.82658,-5.965879,0.9898543,6.464331
19.29994,62.82658,-5.965301,0.9898543,6.464331
19.34973,63.33517,-5.965301,0.9898543,6.464331
19.40072,62.95374,-5.965879,0.9898543,6.464331
19.45036,62.82658,-5.966458,0.9898543,6.464331
19.50069,61.93654,-5.965879,0.9896896,6.464331
19.54989,61.3008,-5.965879,0.9898543,6.457871
19.59974,60.91935,-5.965879,0.9896896,6.457871
19.64982,60.15646,-5.965879,0.9896896,6.457871
19.69975,62.82658,-5.965879,0.9896896,6.457871
19.75178,72.23557,-5.965879,0.9896896,6.457871
19.79987,73.50706,-5.965879,0.9896896,6.457871
19.84965,74.14281,-5.965879,0.9896896,6.451412
19.90065,74.65141,-5.965301,0.9896896,6.444953
19.95072,74.52426,-5.966458,0.9896896,6.451412
20.00133,73.88851,-5.966458,0.9898543,6.444953
20.05012,73.37991,-5.965879,0.9896896,6.444953
20.09968,72.87133,-5.966458,0.9896896,6.444953
20.14985,71.09124,-5.965879,0.9898543,6.438494
20.19987,71.34554,-5.965879,0.9898543,6.438494
20.25112,70.70979,-5.965879,0.9898543,6.438494
20.29963,70.70979,-5.965879,0.9900191,6.438494
20.35025,75.79574,-5.965879,0.9898543,6.432034
20.4,78.97446,-5.965879,0.9898543,6.432034
20.44987,80.11879,-5.965301,0.9898543,6.432034
20.50087,80.11879,-5.965879,0.9900191,6.425576
20.55011,80.11879,-5.965879,0.9896896,6.425576
20.59995,79.3559,-5.965879,0.9896896,6.425576
20.65074,78.08442,-5.965301,0.9898543,6.419116
20.70062,77.32152,-5.965879,0.9896896,6.419116
20.75115,75.66859,-5.966458,0.9898543,6.412657
20.79984,74.90571,-5.965879,0.9898543,6.412657
20.84962,74.52426,-5.965879,0.9896896,6.406198
20.90074,73.63422,-5.965879,0.9896896,6.406198
20.95119,74.26996,-5.965879,0.9896896,6.406198
21.00073,75.41429,-5.965879,0.9896896,6.406198
21.05047,77.44867,-5.965879,0.9898543,6.399739
21.0997,77.83012,-5.965879,0.9896896,6.399739
21.1496,77.06723,-5.965879,0.9898543,6.399739
21.2011,76.81293,-5.966458,0.9898543,6.39328
21.25075,76.17719,-5.965879,0.9896896,6.39328
21.29995,75.41429,-5.965879,0.9898543,6.39328
21.34979,74.26996,-5.965301,0.9896896,6.386821
21.39963,73.37991,-5.965879,0.9898543,6.386821
21.4518,73.12562,-5.965879,0.9898543,6.380362
21.50162,71.98129,-5.965301,0.9896896,6.380362
21.55082,71.59984,-5.965879,0.9896896,6.380362
21.59999,72.61702,-5.965301,0.9896896,6.373902
21.64982,74.26996,-5.965879,0.9898543,6.373902
21.70149,75.03284,-5.965879,0.9898543,6.367443
21.7512,75.16,-5.965879,0.9896896,6.367443
21.80061,74.14281,-5.966458,0.9898543,6.360984
21.84999,73.50706,-5.965879,0.9898543,6.360984
21.89984,72.74417,-5.965879,0.9896896,6.360984
21.95077,71.72699,-5.965879,0.9898543,6.354525
22.00069,70.70979,-5.965879,0.9896896,6.354525
22.05024,70.4555,-5.965879,0.9896896,6.348066
22.10074,70.20119,-5.966458,0.9896896,6.348066
22.15023,70.58266,-5.965879,0.9896896,6.341606
22.20094,74.01566,-5.965301,0.9898543,6.341606
22.25065,75.28716,-5.965879,0.9896896,6.341606
22.29999,75.41429,-5.966458,0.9898543,6.335147
22.35062,75.16,-5.965879,0.9898543,6.335147
22.39998,74.52426,-5.966458,0.9896896,6.328688
22.45176,74.14281,-5.965301,0.9896896,6.328688
22.50063,73.25277,-5.965879,0.9896896,6.322229
22.55021,72.23557,-5.965879,0.9896896,6.322229
22.60036,71.72699,-5.965301,0.9898543,6.322229
22.65059,71.47269,-5.966458,0.9898543,6.322229
22.70157,70.4555,-5.966458,0.9898543,6.322229
22.75136,73.50706,-5.965301,0.9898543,6.31577
22.79967,77.06723,-5.95893,0.9898543,6.30931
22.85082,79.10161,-5.689654,0.9898543,6.30931
22.89965,78.46587,-5.10072,0.9896896,6.302852
22.95108,77.83012,-4.683197,0.9896896,6.302852
23.00115,76.81293,-4.523368,0.9898543,6.302852
23.05013,76.17719,-4.628183,0.9898543,6.296392
23.10032,73.76136,-4.435926,0.9896896,6.296392
23.15011,73.12562,-4.062413,0.9896896,6.289933
23.20113,72.36273,-3.966863,0.9896896,6.289933
23.25133,71.72699,-3.64431,0.9896896,6.289933
23.30027,71.34554,-3.474058,0.9896896,6.283474
23.35027,75.16,-3.317125,0.9896896,6.283474
23.40078,81.51743,-3.194358,0.9898543,6.277015
23.45073,82.40748,-2.988781,0.9896896,6.270555
23.50191,82.15317,-2.768728,0.9898543,6.270555
23.55037,81.39028,-2.60195,0.9896896,6.270555
23.59971,79.61021,-2.483816,0.9896896,6.270555
23.65058,78.72016,-2.361628,0.9896896,6.264096
23.7016,78.72016,-2.349467,0.9898543,6.264096
23.7516,76.43149,-2.323987,0.9898543,6.264096
23.8004,75.03284,-2.282872,0.9898543,6.257637
23.85036,74.14281,-2.241756,0.9896896,6.257637
23.89977,73.88851,-2.203537,0.9896896,6.251178
23.95193,79.73734,-2.192534,0.9896896,6.251178
24.00124,82.02603,-2.190217,0.9898543,6.244719
24.05031,83.93326,-2.180952,0.9898543,6.244719
24.10039,84.569,-2.167633,0.9896896,6.23826
24.15011,84.0604,-2.149102,0.9898543,6.23826
24.20119,82.53461,-2.118989,0.9898543,6.2318
24.2511,80.88168,-2.09988,0.9898543,6.23826
24.29989,79.3559,-2.080191,0.9898543,6.2318
24.34967,78.72016,-2.056448,0.9896896,6.225342
24.39985,77.19438,-2.007804,0.9898543,6.225342
24.45174,76.05004,-1.735053,0.9898543,6.225342
24.5016,75.66859,-0.9909237,0.9898543,6.218882
24.54968,75.92289,-0.7158563,0.9898543,6.218882
24.60032,79.22876,-0.468006,0.9896896,6.218882
24.65082,79.73734,-0.3238128,0.9898543,6.212423
24.70185,78.84731,-0.05164089,0.9898543,6.212423
24.75108,78.59301,0.3583543,0.9898543,6.212423
24.79982,76.94007,0.7011751,0.9898543,6.205964
24.85063,74.77856,0.8187303,0.9896896,6.205964
24.90008,71.85413,0.8378401,0.9896896,6.199505
24.95082,70.32835,0.764875,0.9898543,6.199505
25.00067,69.81975,0.6224189,0.9898543,6.199505
25.05039,70.70979,0.57088,0.9896896,6.193046
25.10046,84.0604,0.5737755,0.9898543,6.193046
25.15006,87.36626,0.5969391,0.9898543,6.193046
25.20068,87.49342,0.5946227,0.9898543,6.186586
25.25162,87.11198,0.5853572,0.9896896,6.186586
25.30006,85.58618,0.5668265,0.9896896,6.180127
25.35053,84.18755,0.5587193,0.9898543,6.180127
25.40017,82.91606,0.576671,0.9898543,6.180127
25.45073,82.53461,0.5836201,0.9898543,6.173668
25.50122,81.13599,0.5917272,0.9898543,6.173668
25.55047,80.50024,0.5876736,0.9900191,6.167209
25.60018,80.37309,0.5859365,0.9898543,6.167209
25.65088,86.60338,0.582462,0.9898543,6.167209
25.70172,89.90925,0.5784081,0.9898543,6.167209
25.75146,89.40065,0.5813036,0.9898543,6.16075
25.79968,88.89205,0.5876736,0.9898543,6.16075
25.85018,86.22193,0.5882527,0.9898543,6.15429
25.90069,84.18755,0.5841991,0.9900191,6.15429
25.95084,83.29751,0.5784081,0.9898543,6.15429
26.00154,82.02603,0.5714591,0.9900191,6.15429
26.04981,81.26313,0.5135502,0.9898543,6.147832
26.10084,80.50024,0.4950194,0.9896896,6.141372
26.15059,80.24594,0.4573786,0.9896896,6.147832
26.20156,85.33189,0.4567995,0.9898543,6.141372
26.25082,85.45904,0.4440595,0.9896896,6.141372
26.30029,91.18073,0.4382685,0.9896896,6.141372
26.35006,88.5106,0.4423223,0.9898543,6.134913
26.3997,85.71333,0.4429014,0.9898543,6.134913
26.45131,84.18755,0.4249497,0.9898543,6.134913
26.50136,82.91606,0.277861,0.9898543,6.128454
26.5501,82.78893,0.2732282,0.9898543,6.128454
26.60081,80.88168,0.1521985,0.9900191,6.128454
26.65008,80.24594,0.08039144,0.9898543,6.128454
26.70157,79.48306,0.005109838,0.9898543,6.121995
26.75159,85.58618,0.03406431,0.9898543,6.121995
26.80033,90.54498,0.04275064,0.9898543,6.121995
26.84996,90.41783,0.06707247,0.9898543,6.121995
26.89993,88.63776,0.1035551,0.9896896,6.115536
26.95134,85.33189,0.1203487,0.9896896,6.115536
27.0019,83.17036,0.1440913,0.9898543,6.109076
27.05005,82.02603,0.1736248,0.9898543,6.109076
27.10055,81.51743,0.1863648,0.9898543,6.109076
27.1502,80.37309,0.1805739,0.9898543,6.109076
27.20163,80.11879,0.1834694,0.9799718,6.115536
27.25118,79.86449,0.1857857,0.9798071,6.109076
27.29987,82.40748,0.1892602,0.9798071,6.109076
27.34983,89.14634,0.1857857,0.9799718,6.109076
27.40083,89.78209,0.187523,0.9798071,6.109076
27.45119,87.23911,0.1921557,0.9798071,6.109076
27.50156,84.569,0.2020003,0.9799718,6.109076
27.5501,83.80611,0.2141611,0.9799718,6.109076
27.60083,82.78893,0.2101074,0.9799718,6.115536
27.65005,82.28033,0.1817321,0.9799718,6.109076
27.70134,80.50024,0.02421987,0.9798071,6.109076
27.75095,78.84731,-0.01631641,0.9798071,6.109076
27.80062,78.08442,-0.1524024,0.9798071,6.115536
27.84978,84.69615,-0.1744078,0.9798071,6.115536
27.89978,90.67213,-0.220735,0.9798071,6.115536
27.95163,89.40065,-0.2514267,0.9798071,6.115536
28.00162,86.73053,-0.2520057,0.9798071,6.115536
28.05022,85.58618,-0.2728529,0.9798071,6.121995
28.10032,84.44184,-0.2774857,0.9798071,6.121995
28.15029,83.67896,-0.3035447,0.9798071,6.121995
28.20119,83.67896,-0.3064401,0.9799718,6.128454
28.25085,81.51743,-0.3626118,0.9798071,6.128454
28.30033,80.62739,-0.4216789,0.9798071,6.128454
28.35031,82.15317,-0.4378934,0.9798071,6.134913
28.39994,90.41783,-0.4431052,0.9798071,6.134913
28.45147,91.81647,-0.4709015,0.9798071,6.134913
28.50143,90.16354,-0.4830623,0.9798071,6.134913
28.55091,88.25631,-0.4790087,0.9798071,6.134913
28.60012,85.58618,-0.4795878,0.9798071,6.141372
28.65067,84.44184,-0.4847996,0.9798071,6.141372
28.70133,84.18755,-0.5311267,0.9798071,6.147832
28.75108,83.55181,-0.5218613,0.9798071,6.147832
28.80074,82.15317,-0.5253358,0.9798071,6.15429
28.85031,79.86449,-0.5230196,0.9799718,6.147832
28.90052,84.3147,-0.4801669,0.9798071,6.15429
28.95157,90.67213,-0.3672445,0.9798071,6.15429
29.00132,91.43503,-0.2699576,0.9799718,6.15429
29.05079,90.03638,-0.1031798,0.9798071,6.16075
29.10031,87.11198,0.0433298,0.9798071,6.16075
29.15095,84.82329,0.1267187,0.9798071,6.16075
29.2012,83.67896,0.2228475,0.9798071,6.16075
29.25099,83.04321,0.2714909,0.9799718,6.167209
29.30067,82.15317,0.317239,0.9798071,6.167209
29.3508,80.50024,0.3467726,0.9799718,6.167209
29.40087,79.99165,0.4481131,0.9799718,6.167209
29.45147,79.22876,0.4938613,0.9798071,6.167209
29.50169,87.49342,0.5581402,0.9798071,6.173668
29.55014,90.79928,0.5847781,0.9798071,6.173668
29.59987,90.16354,0.6195235,0.9799718,6.173668
29.65059,85.58618,0.654848,0.9799718,6.173668
29.7013,83.55181,0.6971215,0.9798071,6.173668
29.75142,82.53461,0.6965424,0.9798071,6.173668
29.80096,82.02603,0.7011751,0.9798071,6.180127
29.85065,82.02603,0.7208642,0.9798071,6.173668
29.8998,80.50024,0.7254968,0.9798071,6.180127
29.95107,77.70296,0.7029124,0.9798071,6.180127
30.00077,78.21156,0.700596,0.9798071,6.186586
30.05061,87.74771,0.700596,0.9798071,6.180127
30.10012,90.67213,0.700596,0.9798071,6.186586
30.15078,89.40065,0.7040706,0.9798071,6.186586
30.20107,85.71333,0.712757,0.9798071,6.186586
30.25183,82.91606,0.7156525,0.9798071,6.186586
30.29982,82.40748,0.7029124,0.9799718,6.193046
30.34998,82.02603,0.6884353,0.9798071,6.186586
30.39982,81.39028,0.6751162,0.9798071,6.186586
30.45156,79.3559,0.6432661,0.9798071,6.186586
30.50194,76.68578,0.6027301,0.9799718,6.186586
30.55059,77.44867,0.5737755,0.9799718,6.186586
30.60058,86.98483,0.5592983,0.9799718,6.186586
30.65038,89.90925,0.5506119,0.9798071,6.193046
30.70152,89.0192,0.5477164,0.9798071,6.186586
30.75179,84.44184,0.5494538,0.9798071,6.193046
30.80011,82.02603,0.5280275,0.9798071,6.186586
30.85018,81.26313,0.4961775,0.9798071,6.186586
30.90074,81.26313,0.3838344,0.9798071,6.186586
30.95086,80.50024,0.3230299,0.9798071,6.193046
31.00086,79.10161,0.2697536,0.9799718,6.193046
31.05059,76.94007,0.2043166,0.9799718,6.193046
31.09979,75.28716,0.1232441,0.9799718,6.193046
31.15074,80.75454,0.1122414,0.9799718,6.193046
31.2008,89.78209,0.1145577,0.9799718,6.186586
31.25185,90.29069,0.0977642,0.9798071,6.193046
31.29981,85.71333,0.09428967,0.9798071,6.193046
31.34979,82.15317,0.07228427,0.9798071,6.193046
31.39985,81.26313,0.05954424,0.9798071,6.193046
31.45123,81.77173,0.03058977,0.9798071,6.193046
31.5015,81.64457,-0.02963548,0.9798071,6.193046
31.54998,81.39028,-0.059169,0.9798071,6.193046
31.60085,77.70296,-0.1836732,0.9799718,6.186586
31.65073,76.55863,-0.2450567,0.9798071,6.193046
31.70166,77.83012,-0.3064401,0.9796425,6.186586
31.7511,89.5278,-0.3238128,0.9798071,6.186586
31.79997,90.92643,-0.3429227,0.9799718,6.193046
31.84985,89.90925,-0.3747727,0.9898543,6.186586
31.90053,84.82329,-0.3794054,0.9898543,6.186586
31.95157,82.91606,-0.4048854,0.9898543,6.186586
32.00104,81.13599,-0.4564243,0.9898543,6.193046
32.05085,80.50024,-0.4981187,0.9900191,6.186586
32.10085,80.11879,-0.5490785,0.9898543,6.186586
32.15059,77.83012,-0.5687675,0.9896896,6.186586
32.20078,74.90571,-0.6897972,0.9898543,6.186586
32.25093,72.74417,-0.7268589,0.9898543,6.186586
32.30077,81.64457,-0.7413362,0.9898543,6.186586
32.35051,89.5278,-0.7401779,0.9898543,6.186586
32.40031,89.90925,-0.7378616,0.9898543,6.186586
32.4511,88.38345,-0.7343871,0.9896896,6.186586
32.50104,82.91606,-0.7257007,0.9896896,6.180127
32.5509,82.02603,-0.7228053,0.9898543,6.180127
32.60054,82.15317,-0.7199098,0.9900191,6.186586
32.64993,81.77173,-0.714119,0.9898543,6.180127
32.70169,80.88168,-0.6909554,0.9896896,6.180127
32.75178,80.50024,-0.6347837,0.9896896,6.180127
32.80015,79.3559,-0.630151,0.9898543,6.180127
32.8498,79.22876,-0.5681885,0.9898543,6.180127
32.90051,79.61021,-0.4726387,0.9898543,6.180127
32.95093,83.67896,-0.3516091,0.9898543,6.180127
33.00112,89.40065,-0.2375286,0.9898543,6.173668
33.05051,89.78209,-0.06264354,0.9898543,6.173668
33.10063,89.0192,0.05201613,0.9898543,6.173668
33.15062,88.25631,0.1168741,0.9898543,6.173668
33.20146,87.74771,0.213582,0.9898543,6.173668
33.2519,87.87486,0.2755446,0.9896896,6.173668
33.30038,88.00201,0.3183971,0.9896896,6.173668
33.35012,89.0192,0.3560379,0.9898543,6.173668
33.40068,89.78209,0.3571962,0.9898543,6.167209
33.45105,89.90925,0.3809389,0.9898543,6.173668
33.50089,89.90925,0.5037058,0.9896896,6.173668
33.55029,89.90925,0.5610355,0.9898543,6.167209
33.6009,89.78209,0.5813036,0.9898543,6.167209
33.65052,90.16354,0.6183653,0.9898543,6.173668
33.70177,90.54498,0.6461616,0.9896896,6.16075
33.7513,89.90925,0.6623762,0.9898543,6.167209
33.80093,88.5106,0.6855398,0.9898543,6.167209
33.84981,87.49342,0.7040706,0.9898543,6.167209
33.90052,86.73053,0.7139151,0.9896896,6.16075
33.95181,86.34908,0.7173896,0.9898543,6.16075
34.0014,85.45904,0.7226015,0.9896896,6.16075
34.05013,85.20473,0.7197061,0.9896896,6.16075
34.10002,84.95044,0.7347623,0.9898543,6.16075
34.15086,84.95044,0.7364997,0.9896896,6.16075
34.20129,83.80611,0.7359206,0.9898543,6.15429
34.25114,83.55181,0.7428697,0.9896896,6.15429
34.30054,83.17036,0.7422904,0.9896896,6.15429
34.3505,82.91606,0.7347623,0.9898543,6.15429
34.40052,82.53461,0.7156525,0.9898543,6.15429
34.45087,81.26313,0.7023334,0.9898543,6.15429
34.50188,80.11879,0.6913306,0.9896896,6.147832
34.55002,79.99165,0.6704834,0.9898543,6.147832
34.60076,78.84731,0.6594807,0.9900191,6.147832
34.64993,78.46587,0.6386335,0.9898543,6.147832
34.70184,78.46587,0.6235773,0.9896896,6.147832
34.7519,78.33871,0.5986763,0.9896896,6.147832
34.80051,77.83012,0.5928856,0.9898543,6.147832
34.85076,77.32152,0.6062046,0.9898543,6.141372
34.90075,76.94007,0.6096792,0.9896896,6.141372
34.9509,76.43149,0.5899901,0.9898543,6.141372
35.00176,76.55863,0.5813036,0.9898543,6.141372
35.0499,76.17719,0.5430838,0.9898543,6.134913
35.09982,75.66859,0.5094966,0.9896896,6.134913
35.14987,75.79574,0.3554588,0.9898543,6.134913
35.20129,75.66859,0.3444562,0.9900191,6.134913
35.25161,75.28716,0.3288207,0.9900191,6.128454
35.3006,74.90571,0.3259254,0.9898543,6.134913
35.35019,74.90571,0.3241881,0.9898543,6.128454
35.40036,74.90571,0.3328745,0.9898543,6.128454
35.45175,74.14281,0.3450352,0.9900191,6.128454
35.50152,74.65141,0.3461936,0.9896896,6.128454
35.55075,74.14281,0.3265045,0.9896896,6.121995
35.60056,74.14281,0.2575928,0.9898543,6.121995
35.65049,74.14281,0.2187938,0.9898543,6.121995
35.70156,73.76136,0.1052923,0.9896896,6.121995
35.75086,74.26996,0.07402153,0.9898543,6.115536
35.80086,74.14281,0.03116893,0.9898543,6.115536
35.85064,74.14281,0.001635307,0.9898543,6.115536
35.9001,74.52426,-0.04758719,0.9896896,6.115536
35.95091,74.65141,-0.0811744,0.9896896,6.109076
36.00154,74.65141,-0.0811744,0.9900191,6.109076
36.05005,74.52426,-0.09333527,0.9898543,6.115536
36.10005,74.52426,-0.1078126,0.9898543,6.109076
36.15101,74.65141,-0.1477697,0.9898543,6.102617
36.20162,74.26996,-0.2247885,0.9898543,6.109076
36.25148,74.52426,-0.2375286,0.9898543,6.102617
36.29988,74.52426,-0.3261291,0.9898543,6.102617
36.3505,73.88851,-0.3463973,0.9898543,6.102617
36.40102,73.37991,-0.3776681,0.9900191,6.102617
36.45092,73.76136,-0.3979362,0.9900191,6.096158
36.50172,79.3559,-0.3973571,0.9898543,6.096158
36.55073,84.69615,-0.3788263,0.9898543,6.096158
36.60004,86.73053,-0.3400274,0.9898543,6.096158
36.64985,87.49342,-0.3359737,0.9896896,6.096158
36.70201,87.49342,-0.3776681,0.9898543,6.089699
36.75137,87.11198,-0.3840381,0.9898543,6.089699
36.80035,87.11198,-0.3498718,0.9898543,6.089699
36.85099,86.60338,-0.3052819,0.9900191,6.08324
36.90025,86.60338,-0.2989119,0.9898543,6.07678
36.95153,86.22193,-0.1784614,0.9896896,6.07678
37.00207,86.47623,-0.08580715,0.9898543,6.08324
37.05032,87.11198,0.03638073,0.9896896,6.07678
37.10056,89.5278,0.102976,0.9896896,6.07678
37.15048,90.41783,0.1504612,0.9898543,6.07678
37.20191,90.54498,0.2535392,0.9896896,6.070321
37.25124,91.05358,0.3317162,0.9898543,6.070321
37.30012,90.29069,0.389046,0.9896896,6.070321
37.351,89.14634,0.4168423,0.9896896,6.070321
37.40077,88.25631,0.4799632,0.9898543,6.070321
37.45162,87.87486,0.5963601,0.9896896,6.063862
37.50123,87.87486,0.5940436,0.9898543,6.063862
37.55061,87.36626,0.6322635,0.9896896,6.063862
37.60025,86.98483,0.6710626,0.9898543,6.063862
37.65011,87.49342,0.6971215,0.9898543,6.057403
37.7019,89.14634,0.7110196,0.9900191,6.057403
37.75097,90.67213,0.7509769,0.9898543,6.057403
37.80039,90.29069,0.7915131,0.9898543,6.057403
37.8501,90.29069,0.8204675,0.9898543,6.057403
37.9009,89.5278,0.8754809,0.9898543,6.057403
37.95123,88.63776,0.9125427,0.9898543,6.050944
38.00107,88.25631,0.9333899,0.9900191,6.050944
38.05014,87.11198,0.940339,0.9896896,6.050944
38.0999,86.60338,0.9414973,0.9898543,6.050944
38.15085,85.20473,0.9438135,0.9896896,6.044485
38.2014,84.44184,0.9438135,0.9898543,6.044485
38.25097,84.44184,0.9443927,0.9898543,6.044485
38.30059,89.78209,0.9409182,0.9896896,6.038026
38.35097,89.90925,0.9420763,0.9898543,6.038026
38.40073,88.63776,0.9409182,0.9898543,6.038026
38.45149,86.34908,0.9299154,0.9898543,6.031566
38.50149,85.20473,0.90791,0.9898543,6.038026
38.55001,84.44184,0.8806928,0.9900191,6.031566
38.60098,83.17036,0.8407356,0.9898543,6.025107
38.65082,82.02603,0.842473,0.9896896,6.031566
38.70219,80.88168,0.8233629,0.9898543,6.031566
38.75114,80.11879,0.7984622,0.9896896,6.025107
38.80019,79.22876,0.7619795,0.9900191,6.025107
38.85102,80.11879,0.7376578,0.9898543,6.018648
38.90072,87.87486,0.7393951,0.9896896,6.018648
38.95088,89.14634,0.7388159,0.9896896,6.018648
39.00161,87.87486,0.7469233,0.9896896,6.012189
39.05101,85.58618,0.7480814,0.9898543,6.018648
39.10079,84.3147,0.7434487,0.9898543,6.018648
39.15049,82.91606,0.7347623,0.9898543,6.018648
39.20124,82.53461,0.7220223,0.9898543,6.012189
39.25114,80.50024,0.700596,0.9896896,6.012189
39.30052,80.50024,0.700017,0.9898543,6.00573
39.35025,79.73734,0.680907,0.9896896,6.00573
39.40024,79.73734,0.6623762,0.9898543,6.00573
39.45101,80.11879,0.6322635,0.9898543,6.00573
39.50152,85.96764,0.6345799,0.9898543,6.00573
39.55027,90.79928,0.6345799,0.9898543,6.00573
39.5999,90.29069,0.642108,0.9898543,5.99927
39.65087,89.14634,0.6664298,0.9898543,5.99927
39.70164,86.34908,0.6785907,0.9896896,5.992811
39.75127,84.44184,0.6895934,0.9898543,5.99927
39.80035,83.55181,0.7133361,0.9896896,5.992811
39.85085,83.29751,0.7758776,0.9896896,5.992811
39.90031,82.53461,0.8245211,0.9896896,5.992811
39.95153,81.77173,0.8615828,0.9898543,5.992811
40.00134,80.50024,0.9177546,0.9898543,5.992811
40.05033,79.73734,0.9414973,0.9898543,5.992811
40.10014,81.64457,0.9750845,0.9896896,5.986352
40.15086,89.90925,1.025465,0.9898543,5.986352
40.20151,92.7065,1.043417,0.9900191,5.986352
40.25187,91.94361,1.058473,0.9896896,5.979893
40.29999,87.62056,1.071213,0.9896896,5.979893
40.35001,86.85767,1.085111,0.9898543,5.979893
40.40099,85.33189,1.090902,0.9898543,5.979893
40.45158,84.95044,1.096693,0.9898543,5.973434
40.50108,84.3147,1.09901,0.9898543,5.973434
40.55091,82.40748,1.102484,0.9898543,5.979893
40.60087,78.97446,1.101326,0.9900191,5.973434
40.65065,77.83012,1.097272,0.9898543,5.973434
40.70147,78.21156,1.077583,0.9898543,5.973434
40.75151,86.34908,1.045154,0.9898543,5.966975
40.8008,90.92643,1.02894,0.9898543,5.966975
40.85,90.16354,1.043417,0.9896896,5.966975
40.90063,86.34908,1.084532,0.9898543,5.966975
40.95152,84.0604,1.100168,0.9898543,5.966975
41.00111,84.0604,1.111749,0.9898543,5.960516
41.05083,83.29751,1.118699,0.9896896,5.960516
41.10009,82.91606,1.121015,0.9896896,5.960516
41.15073,80.88168,1.123331,0.9896896,5.960516
41.2019,79.86449,1.121594,0.9898543,5.960516
41.25217,78.21156,1.125648,0.9896896,5.960516
41.30063,76.55863,1.127385,0.9898543,5.954056
41.3509,82.02603,1.13028,0.9896896,5.960516
41.40089,89.90925,1.132597,0.9898543,5.960516
41.4518,90.67213,1.127964,0.9898543,5.954056
41.50151,89.5278,1.129122,0.9898543,5.954056
41.54999,85.84048,1.13028,0.9896896,5.954056
41.6008,84.3147,1.13028,0.9900191,5.954056
41.65113,83.55181,1.131438,0.9896896,5.947598
41.70176,83.42466,1.132017,0.9898543,5.947598
41.75162,82.02603,1.132017,0.9898543,5.947598
41.79996,80.37309,1.133176,0.9898543,5.947598
41.85099,77.83012,1.123331,0.9898543,5.941138
41.90046,76.68578,1.105959,0.9896896,5.947598
41.95213,78.59301,1.06021,0.9898543,5.941138
42.0018,88.25631,1.042838,0.9898543,5.934679
42.04999,91.05358,0.9994062,0.9896896,5.941138
42.10088,90.67213,0.9455509,0.9898543,5.941138
42.15023,88.25631,0.9212291,0.9896896,5.934679
42.202,86.34908,0.9021191,0.9898543,5.934679
42.251,84.44184,0.8934329,0.9900191,5.934679
42.301,84.44184,0.8911164,0.9896896,5.934679
42.35099,84.0604,0.8743228,0.9898543,5.934679
42.40012,81.51743,0.8604247,0.9898543,5.92822
42.45205,78.59301,0.8500011,0.9898543,5.92822
42.50198,77.32152,0.7799312,0.9896896,5.92822
42.55064,76.17719,0.7579259,0.9896896,5.92822
42.60099,81.77173,0.7388159,0.9896896,5.92822
42.65027,90.29069,0.7388159,0.9898543,5.921761
42.70125,91.81647,0.7243387,0.9898543,5.92822
42.75152,90.67213,0.7162315,0.9898543,5.921761
42.80029,87.11198,0.7208642,0.9898543,5.921761
42.85082,84.82329,0.7231806,0.9898543,5.921761
42.90002,84.0604,0.7336042,0.9896896,5.921761
42.95124,84.0604,0.7330251,0.9898543,5.921761
43.0015,83.55181,0.7283923,0.9898543,5.921761
43.05098,80.88168,0.706966,0.9896896,5.915301
43.10002,78.21156,0.6924888,0.9896896,5.915301
43.15047,77.06723,0.6450035,0.9896896,5.915301
43.20127,75.66859,0.6189444,0.9896896,5.915301
43.25119,76.17719,0.5952017,0.9896896,5.915301
43.3005,90.29069,0.6021508,0.9896896,5.908842
43.35035,91.05358,0.5952017,0.9898543,5.908842
43.40101,89.40065,0.5963601,0.9898543,5.908842
43.45144,85.96764,0.6108372,0.9896896,5.915301
43.50122,84.44184,0.6108372,0.9896896,5.908842
43.55072,83.55181,0.6096792,0.9898543,5.908842
43.60009,83.67896,0.6096792,0.9900191,5.908842
43.65087,82.91606,0.6096792,0.9898543,5.908842
43.70166,79.61021,0.6218399,0.9898543,5.902383
43.75154,77.83012,0.595781,0.9898543,5.902383
43.80024,76.17719,0.5847781,0.9898543,5.902383
43.8506,76.17719,0.5685638,0.9900191,5.908842
43.90054,87.49342,0.5691429,0.9896896,5.902383
43.95124,91.81647,0.5523493,0.9896896,5.895924
44.0016,90.67213,0.4394269,0.9896896,5.895924
44.04995,87.49342,0.4214751,0.9896896,5.895924
44.10046,84.82329,0.4232123,0.9896896,5.895924
44.15009,84.0604,0.4185797,0.9898543,5.895924
44.20199,83.67896,0.394258,0.9898543,5.895924
44.25133,83.17036,0.3305581,0.9898543,5.895924
44.30088,80.11879,0.3068154,0.9896896,5.895924
44.35059,78.59301,0.3230299,0.9896896,5.889464
44.40037,76.17719,0.3085525,0.9898543,5.895924
44.45107,75.28716,0.25296,0.9898543,5.895924
44.50153,76.55863,0.1417749,0.9896896,5.889464
44.55006,89.0192,0.2089493,0.9898543,5.889464
44.60099,90.67213,0.265121,0.9898543,5.889464
44.65047,88.63776,0.3369281,0.9898543,5.889464
44.70098,85.20473,0.4197378,0.9896896,5.889464
44.75186,83.55181,0.4440595,0.9896896,5.883006
44.80048,83.29751,0.4556414,0.9898543,5.889464
44.85046,83.04321,0.4695396,0.9898543,5.883006
44.90113,80.88168,0.4845958,0.9898543,5.883006
44.95159,78.59301,0.5077594,0.9896896,5.883006
45.00163,75.66859,0.4955984,0.9896896,5.883006
45.04997,74.52426,0.4938613,0.9898543,5.883006
45.10058,80.50024,0.4857539,0.9896896,5.883006
45.15046,87.87486,0.4498505,0.9898543,5.883006
45.20199,89.90925,0.4371104,0.9999016,5.883006
45.25161,88.63776,0.4672231,0.999737,5.876546
45.3,84.82329,0.4909658,0.999737,5.883006
45.35059,82.02603,0.4706976,0.999737,5.876546
45.40057,81.77173,0.4261078,0.9999016,5.876546
45.45205,81.51743,0.3317162,0.999737,5.876546
45.5019,80.75454,0.2379038,0.999737,5.876546
45.55073,78.59301,0.2147402,0.999737,5.876546
45.6002,75.66859,0.09544778,0.999737,5.870087
45.65025,74.65141,0.01611259,0.999737,5.870087
45.701,80.50024,-0.02036999,0.999737,5.870087
45.75098,89.78209,-0.059169,0.999737,5.870087
45.80083,90.92643,-0.1054961,0.999737,5.870087
45.85052,88.7649,-0.1251852,0.9898543,5.870087
45.90114,85.33189,-0.1170779,0.9896896,5.870087
45.95136,83.04321,-0.1286598,0.9896896,5.870087
46.00111,82.91606,-0.162826,0.9896896,5.863628
46.05078,82.53461,-0.1552978,0.9898543,5.863628
46.10048,81.39028,-0.1529815,0.9898543,5.863628
46.15105,78.59301,-0.2143649,0.9898543,5.863628
46.20127,76.55863,-0.3243918,0.9898543,5.863628
46.2512,76.94007,-0.377089,0.9896896,5.863628
46.30046,88.63776,-0.415309,0.9898543,5.863628
46.35046,91.81647,-0.4853787,0.9896896,5.863628
46.4005,90.67213,-0.4714805,0.9898543,5.863628
46.4521,86.98483,-0.4274698,0.9898543,5.857169
46.50145,85.58618,-0.4627942,0.9898543,5.863628
46.55022,84.44184,-0.4801669,0.9896896,5.857169
46.60033,84.44184,-0.4512125,0.9898543,5.857169
46.6503,0.9051962,-0.4523706,0.9898543,5.857169
46.70206,0.5237532,-0.4552661,0.9896896,5.857169
46.7521,0.5237532,-0.5102795,0.9896896,5.857169
46.80081,0.3966055,-0.5809285,0.9896896,5.857169
46.85109,0.5237532,-0.616832,0.9898543,5.85071
46.90026,0.5237532,-0.6926926,0.9898543,5.85071
46.95206,0.5237532,-0.7384407,0.9896896,5.85071
47.00197,0.5237532,-0.7355453,0.9896896,5.85071
47.05058,0.5237532,-0.7135398,0.9898543,5.85071
47.1012,0.5237532,-0.7228053,0.9896896,5.85071
47.15074,0.5237532,-0.7760815,0.9898543,5.85071
47.20112,0.5237532,-0.7170144,0.9896896,5.85071
47.25129,0.5237532,-0.6984836,0.9898543,5.85071
47.30074,0.5237532,-0.8137223,0.9896896,5.844251
47.35049,0.5237532,-0.9254865,0.9896896,5.85071
47.40031,0.5237532,-0.9631273,0.9898543,5.844251
47.4517,0.5237532,-0.9718136,0.9898543,5.85071
47.5021,0.5237532,-0.9712346,0.9896896,5.844251
47.55045,0.5237532,-0.9312774,0.9896896,5.844251
47.60059,0.7780523,-0.7795561,0.9898543,5.844251
47.65064,0.5237532,-0.64347,0.9900191,5.844251
47.70143,0.6509008,-0.5496576,0.9896896,5.844251
47.75156,0.5237532,-0.4326816,0.9898543,5.844251
47.80031,0.5237532,-0.2381076,0.9898543,5.837791
47.85107,0.6509008,-0.09391443,0.9898543,5.837791
47.90084,0.6509008,-0.06785534,0.9896896,5.837791
47.9511,0.5237532,0.01727081,0.9898543,5.844251
48.00185,0.5237532,0.09023598,0.9896896,5.837791
48.05011,0.5237532,0.1666758,0.9896896,5.837791
48.10114,0.5237532,0.2680164,0.9896896,5.837791
48.15032,0.5237532,0.3293999,0.9896896,5.837791
48.20222,0.5237532,0.4104723,0.9896896,5.837791
48.25197,0.5237532,0.4776467,0.9896896,5.837791
48.30033,0.6509008,0.5980972,0.9898543,5.837791
48.35025,0.6509008,0.6560062,0.9896896,5.837791
48.40027,0.3966055,0.7092825,0.9898543,5.837791
48.45166,0.3966055,0.7446069,0.9898543,5.837791
48.50143,0.5237532,0.7608214,0.9896896,5.837791
48.55069,0.6509008,0.7764567,0.9896896,5.837791
48.60033,0.5237532,0.8129393,0.9898543,5.837791
48.65107,0.6509008,0.8442101,0.9896896,5.837791
48.70146,0.6509008,0.8592666,0.9898543,5.837791
48.75143,0.6509008,0.8691111,0.9898543,5.837791
48.80096,0.6509008,0.8772183,0.9898543,5.837791
48.85062,0.6509008,0.8783764,0.9898543,5.837791
48.90109,0.6509008,0.8812719,0.9898543,5.837791
48.95214,0.3966055,0.88243,0.9896896,5.831332
49.00188,0.3966055,0.8870628,0.9896896,5.837791
49.05053,0.6509008,0.8859046,0.9898543,5.831332
49.10126,0.3966055,0.8841674,0.9896896,5.837791
49.15072,0.5237532,0.8806928,0.9896896,5.837791
49.20116,0.7780523,0.8754809,0.9898543,5.831332
49.25196,0.6509008,0.8610038,0.9896896,5.831332
49.30056,0.6509008,0.8442101,0.9898543,5.837791
49.35122,0.7780523,0.848843,0.9896896,5.837791
49.4003,0.5237532,0.8500011,0.9898543,5.837791
49.45145,0.7780523,0.7938293,0.9898543,5.831332
49.50121,0.7780523,0.7718241,0.9898543,5.837791
49.55067,0.5237532,0.7457649,0.9896896,5.831332
49.60026,0.6509008,0.7208642,0.9898543,5.837791
49.651,0.6509008,0.654848,0.9898543,5.831332
49.70144,0.6509008,0.583041,0.9896896,5.831332
49.75156,0.5237532,0.4984939,0.9898543,5.837791
49.80043,0.5237532,0.4909658,0.9898543,5.831332
49.85081,0.6509008,0.4886494,0.9896896,5.831332
49.90052,0.7780523,0.4886494,0.9896896,5.831332
49.95124,0.5237532,0.4979149,0.9896896,5.837791
50.00125,0.6509008,0.5106549,0.9898543,5.837791
50.05042,0.6509008,0.5089175,0.9898543,5.831332
50.10121,0.6509008,0.506022,0.9898543,5.831332
50.15071,0.5237532,0.4979149,0.9898543,5.831332
50.20157,0.7780523,0.4921239,0.9898543,5.831332
50.2515,0.6509008,0.4376895,0.9898543,5.831332
50.30073,0.6509008,0.4208959,0.9898543,5.831332
50.35041,0.5237532,0.3768851,0.9898543,5.831332
50.40125,0.5237532,0.3641453,0.9898543,5.837791
50.45147,0.7780523,0.3496681,0.9896896,5.831332
50.50209,0.6509008,0.3386652,0.9898543,5.831332
50.55123,0.5237532,0.3543007,0.9896896,5.831332
50.60051,0.6509008,0.3606707,0.9896896,5.831332
50.65048,0.7780523,0.3635662,0.9898543,5.837791
50.70159,0.3966055,0.3421398,0.9898543,5.837791
50.752,0.6509008,0.2911799,0.9896896,5.831332
50.80096,0.6509008,0.2564346,0.9898543,5.831332
50.85096,0.6509008,0.2089493,0.9798071,5.831332
50.9008,0.7780523,0.1776784,0.9798071,5.831332
50.95108,0.5237532,0.1272977,0.9798071,5.831332
51.00225,0.5237532,0.1759412,0.9798071,5.831332
51.051,0.5237532,0.2158984,0.9798071,5.831332
51.10008,0.7780523,0.2790191,0.9798071,5.824873
51.15039,0.3966055,0.3618288,0.9798071,5.831332
51.20112,0.3966055,0.3930996,0.9798071,5.831332
51.25212,0.3966055,0.3965742,0.9798071,5.831332
51.30055,0.3966055,0.3913625,0.9798071,5.831332
51.35012,0.3966055,0.3739898,0.9796425,5.824873
51.40009,0.5237532,0.3670408,0.9799718,5.824873
51.45192,0.3966055,0.3398235,0.9798071,5.824873
51.50107,0.5237532,0.2303756,0.9798071,5.831332
51.55074,0.3966055,0.1655176,0.9798071,5.824873
51.60069,0.6509008,0.0769169,0.9799718,5.824873
51.6507,0.6509008,0.01727081,0.9796425,5.824873
51.70195,0.7780523,-0.0423754,0.9798071,5.824873
51.75197,0.5237532,-0.06785534,0.9798071,5.824873
51.80045,0.6509008,-0.07017176,0.9798071,5.824873
51.85055,0.6509008,-0.0863862,0.9798071,5.824873
51.90045,0.7780523,-0.1315552,0.9796425,5.824873
51.95107,0.6509008,-0.1663006,0.9798071,5.824873
52.00116,0.6509008,-0.1819359,0.9798071,5.818414
52.05095,0.5237532,-0.1332925,0.9798071,5.818414
52.10079,0.3966055,-0.1581933,0.9798071,5.824873
52.15121,0.5237532,-0.1605097,0.9798071,5.824873
52.20169,0.3966055,-0.09333527,0.9796425,5.824873
52.25116,0.5237532,-0.01631641,0.9798071,5.818414
52.30119,0.6509008,0.06938878,0.9798071,5.818414
52.35041,0.6509008,0.155094,0.9798071,5.818414
52.40016,0.6509008,0.2234265,0.9798071,5.818414
52.45141,0.6509008,0.3380862,0.9799718,5.818414
52.50216,0.6509008,0.4133678,0.9798071,5.818414
52.55045,0.5237532,0.4822794,0.9799718,5.818414
52.60028,0.5237532,0.6044672,0.9798071,5.818414
52.65018,0.6509008,0.6780117,0.9796425,5.818414
52.70143,0.7780523,0.7324461,0.9798071,5.818414
52.75207,0.6509008,0.752135,0.9798071,5.818414
52.8012,0.6509008,0.7579259,0.9798071,5.818414
52.85016,0.5237532,0.7671914,0.9798071,5.818414
52.90078,0.6509008,0.7863012,0.9798071,5.818414
52.95166,0.6509008,0.8268375,0.9798071,5.818414
53.00142,0.5237532,0.8384194,0.9798071,5.818414
53.05118,0.6509008,0.8552128,0.9798071,5.818414
53.10078,0.6509008,0.8737438,0.9798071,5.811954
53.15041,0.5237532,0.8835883,0.9798071,5.818414
53.20117,0.6509008,0.8853255,0.9798071,5.811954
53.25117,0.6509008,0.8916955,0.9798071,5.811954
53.30052,0.6509008,0.8911164,0.9798071,5.811954
53.35041,0.6509008,0.89517,0.9798071,5.811954
53.40114,0.3966055,0.8969074,0.9798071,5.811954
53.45139,0.3966055,0.8963282,0.9799718,5.811954
53.50207,0.5237532,0.8980655,0.9798071,5.811954
53.55093,0.5237532,0.8974864,0.9799718,5.811954
53.60089,0.6509008,0.8957491,0.9799718,5.805496
53.65067,0.3966055,0.89517,0.9798071,5.805496
53.70153,0.5237532,0.894591,0.9798071,5.805496
53.75153,0.5237532,0.8940119,0.9798071,5.811954
53.80104,0.3966055,0.8893791,0.9798071,5.805496
53.85027,0.6509008,0.8783764,0.9798071,5.805496
53.90017,0.5237532,0.8627411,0.9799718,5.805496
53.95202,0.6509008,0.8152558,0.9799718,5.805496
54.00153,0.3966055,0.7978832,0.9798071,5.805496
54.05016,0.6509008,0.752714,0.9796425,5.805496
54.10133,0.6509008,0.7283923,0.9798071,5.805496
54.15068,0.5237532,0.6907515,0.9796425,5.805496
54.20165,0.6509008,0.6861188,0.9896896,5.805496
54.25128,0.6509008,0.6797488,0.9898543,5.805496
54.30039,0.6509008,0.6693252,0.9896896,5.799037
54.35117,0.5237532,0.654269,0.9898543,5.799037
54.40091,0.6509008,0.6056253,0.9898543,5.799037
54.45211,0.6509008,0.5147085,0.9898543,5.799037
54.50126,0.6509008,0.4973358,0.9898543,5.799037
54.5501,0.7780523,0.459116,0.9896896,5.799037
54.60112,0.6509008,0.3930996,0.9898543,5.799037
54.65054,0.6509008,0.3635662,0.9898543,5.799037
54.7011,0.6509008,0.2344293,0.9898543,5.799037
54.75175,0.3966055,0.2072121,0.9896896,5.799037
54.80046,0.6509008,0.1857857,0.9896896,5.792577
54.85019,0.6509008,0.1996838,0.9898543,5.799037
54.90113,0.6509008,0.2164775,0.9896896,5.799037
54.95229,0.5237532,0.2066329,0.9898543,5.799037
55.00195,0.6509008,0.2158984,0.9896896,5.792577
55.05016,0.6509008,0.2106866,0.9898543,5.792577
55.10102,0.7780523,0.1996838,0.9898543,5.792577
55.15028,0.6509008,0.1672548,0.9896896,5.792577
55.20155,0.6509008,0.1070296,0.9898543,5.792577
55.25191,0.6509008,0.02248261,0.9898543,5.792577
55.30018,0.5237532,-0.004734598,0.9896896,5.792577
55.35056,0.3966055,-0.05164089,0.9896896,5.792577
55.40031,0.6509008,-0.1112871,0.9898543,5.792577
55.45155,0.6509008,-0.1842523,0.9896896,5.792577
55.50215,0.6509008,-0.2132067,0.9898543,5.792577
55.5504,0.5237532,-0.2328958,0.9896896,5.786119
55.60122,0.5237532,-0.2438985,0.9898543,5.786119
55.65093,0.6509008,-0.227684,0.9898543,5.792577
55.70131,0.7780523,-0.1060753,0.9898543,5.786119
55.7513,0.5237532,-0.05801089,0.9896896,5.786119
55.80126,0.6509008,-0.03426823,0.9898543,5.786119
55.8508,0.6509008,-0.001260066,0.9898543,5.786119
55.90024,0.6509008,0.0276944,0.9898543,5.779659
55.952,0.6509008,0.06417699,0.9896896,5.786119
56.00165,0.5237532,0.05491161,0.9896896,5.786119
56.05112,0.5237532,0.01784986,0.9896896,5.786119
56.10012,0.6509008,0.02421987,0.9898543,5.786119
56.15068,0.5237532,0.06765152,0.9898543,5.786119
56.20139,0.6509008,0.1608849,0.9896896,5.779659
56.25137,0.7780523,0.246011,0.9898543,5.779659
56.30114,0.5237532,0.3716734,0.9896896,5.779659
56.35031,0.5237532,0.4735931,0.9896896,5.786119
56.40024,0.6509008,0.5257111,0.9898543,5.779659
56.45152,0.6509008,0.6392125,0.9898543,5.779659
56.50152,0.7780523,0.7098615,0.9898543,5.779659
56.55037,0.6509008,0.7434487,0.9896896,5.7732
56.60074,0.6509008,0.7851431,0.9898543,5.779659
56.65064,0.5237532,0.8042532,0.9898543,5.779659
56.70169,0.6509008,0.8389984,0.9898543,5.779659
56.75136,0.5237532,0.8465266,0.9898543,5.7732
56.80062,0.6509008,0.8534756,0.9898543,5.7732
56.85049,0.6509008,0.8720064,0.9898543,5.779659
56.90112,0.6509008,0.8940119,0.9896896,5.7732
56.95116,0.5237532,0.9038565,0.9896896,5.7732
57.00212,0.7780523,0.9154382,0.9898543,5.7732
57.05058,0.5237532,0.9275991,0.9900191,5.7732
57.10122,0.5237532,0.9328108,0.9896896,5.7732
57.15065,0.6509008,0.9438135,0.9900191,5.7732
57.20205,0.6509008,0.9571326,0.9898543,5.7732
57.25224,0.5237532,0.9617654,0.9896896,5.7732
57.30137,0.6509008,0.9646606,0.9896896,5.7732
57.35139,0.5237532,0.9669771,0.9898543,5.766741
57.40061,0.6509008,0.9652399,0.9898543,5.766741
57.45223,0.7780523,0.9611861,0.9898543,5.766741
57.50225,0.7780523,0.9519209,0.9798071,5.766741
57.55024,0.5237532,0.9275991,0.9798071,5.766741
57.60036,129.9611,0.8772183,0.9798071,5.766741
57.65049,125.1294,0.8262584,0.9799718,5.766741
57.70161,115.4661,0.8007786,0.9796425,5.766741
57.75216,110.6345,0.7561885,0.9798071,5.766741
57.80099,109.8716,0.7278132,0.9798071,5.766741
57.85049,110.3802,0.7185478,0.9798071,5.766741
57.90047,108.8544,0.7359206,0.9798071,5.766741
57.95142,104.0227,0.8801138,0.9796425,5.760282
58.00117,97.28386,0.9241246,0.9799718,5.760282
58.0514,95.37663,0.9200708,0.9798071,5.766741
58.10017,93.59654,0.9189127,0.9796425,5.766741
58.15125,104.9128,0.900961,0.9798071,5.766741
58.20192,131.1054,0.8222048,0.9898543,5.766741
58.25175,132.2497,0.7741405,0.9898543,5.760282
58.30111,126.7823,0.7254968,0.9896896,5.760282
58.35098,118.8991,0.693647,0.9896896,5.760282
58.40038,115.339,0.576671,0.9900191,5.760282
58.45164,115.2118,0.5199202,0.9898543,5.760282
58.50148,114.8304,0.4892284,0.9896896,5.760282
58.55112,111.3974,0.447534,0.9896896,5.760282
58.60073,102.8784,0.4122097,0.9898543,5.760282
58.65138,100.0811,0.4000487,0.9898543,5.760282
58.70211,98.04675,0.3600917,0.9898543,5.766741
58.75218,97.53816,0.3577753,0.9898543,5.760282
58.80046,111.0159,0.3618288,0.9898543,5.753822
58.85061,133.5212,0.3386652,0.9896896,5.753822
58.90139,135.937,0.304499,0.9898543,5.760282
58.95224,131.4868,0.2674373,0.9896896,5.753822
59.00148,122.205,0.2657,0.9896896,5.753822
59.05048,117.8819,0.2425364,0.9898543,5.753822
59.10035,116.6105,0.232692,0.9896896,5.760282
59.15023,116.6105,0.2141611,0.9896896,5.753822
59.20216,115.2118,0.1469867,0.9898543,5.753822
59.25161,106.4386,0.06707247,0.9898543,5.753822
59.30076,102.7513,0.04738338,0.9898543,5.753822
59.35145,99.44539,0.005688998,0.9896896,5.747364
59.40111,98.30104,0.009742583,0.9898543,5.753822
59.45201,117.2462,0.02016618,0.9898543,5.753822
59.50127,136.5728,0.03174799,0.9896896,5.747364
59.5511,137.7171,0.04680433,0.9898543,5.747364
59.6006,134.157,0.06707247,0.9900191,5.747364
59.6506,126.7823,0.09486872,0.9896896,5.747364
59.70135,121.315,0.1041341,0.9898543,5.747364
59.75138,118.8991,0.1006596,0.9896896,5.747364
59.8005,119.1534,0.1180322,0.9898543,5.747364
59.85064,117.5005,0.1979466,0.9896896,5.747364
59.90105,105.93,0.2471692,0.9898543,5.747364
59.95126,102.7513,0.3571962,0.9896896,5.747364
60.00159,101.0983,0.3907834,0.9896896,5.747364
60.05072,98.04675,0.4318987,0.9898543,5.740904
60.10075,103.7684,0.4782258,0.9896896,5.747364
60.15072,123.9851,0.5303438,0.9898543,5.747364
60.20235,133.2669,0.6617971,0.9898543,5.747364
60.25218,132.7583,0.6971215,0.9898543,5.740904
60.30072,126.528,0.7457649,0.9896896,5.747364
60.35111,120.9335,0.7741405,0.9896896,5.747364
60.40136,117.3734,0.7984622,0.9896896,5.747364
60.45161,116.1019,0.8326284,0.9898543,5.740904
60.50212,114.5761,0.848843,0.9896896,5.740904
60.55137,113.0503,0.8569502,0.9896896,5.740904
60.60038,105.5485,0.8662156,0.9898543,5.740904
60.6506,99.95398,0.8795347,0.9898543,5.740904
60.70137,94.99519,0.8783764,0.9896896,5.740904
60.75214,92.96081,0.8789555,0.9898543,5.740904
60.80042,121.6964,0.8801138,0.9898543,5.740904
60.8504,130.8511,0.8934329,0.9898543,5.740904
60.90123,129.7068,0.907331,0.9898543,5.740904
60.9519,125.1294,0.9316527,0.9896896,5.734445
61.0014,117.8819,0.9733471,0.9898543,5.740904
61.0509,112.6688,0.9895617,0.9898543,5.734445
61.10027,112.9231,0.9866662,0.9898543,5.734445
61.15145,112.1602,0.9455509,0.9898543,5.734445
61.20153,111.5245,0.9299154,0.9896896,5.734445
61.25201,104.0227,0.9177546,0.9900191,5.734445
61.30115,99.31824,0.8465266,0.9898543,5.740904
61.35062,98.04675,0.7718241,0.9896896,5.734445
61.40037,95.50377,0.7173896,0.9898543,5.734445
61.45213,105.4214,0.6838024,0.9898543,5.734445
61.50137,129.4525,0.6392125,0.9898543,5.734445
61.55023,129.8339,0.5002313,0.9898543,5.727985
61.60073,126.0195,0.4828584,0.9898543,5.734445
61.65037,117.7548,0.4701186,0.9896896,5.727985
61.70161,113.4317,0.453325,0.9896896,5.727985
61.75138,111.7788,0.4654858,0.9896896,5.727985
61.80098,111.2702,0.4770676,0.9898543,5.734445
61.85026,108.7272,0.4805422,0.9898543,5.727985
61.90098,101.3526,0.4817003,0.9896896,5.727985
61.95174,99.44539,0.4776467,0.9896896,5.727985
62.00238,94.86804,0.4353733,0.9898543,5.727985
62.05087,94.61374,0.3710943,0.9898543,5.727985
62.10064,98.04675,0.3282416,0.9896896,5.727985
62.15062,133.7755,0.2697536,0.9898543,5.727985
62.20211,132.3769,0.2274802,0.9898543,5.727985
62.2519,130.2153,0.2176357,0.9896896,5.727985
62.30069,123.2222,0.220531,0.9896896,5.727985
62.35122,119.5349,0.1921557,0.9896896,5.727985
62.40136,117.6276,0.1632013,0.9898543,5.727985
62.45239,116.1019,0.1093459,0.9900191,5.727985
62.50127,108.7272,0.0601234,0.9898543,5.721527
62.55059,104.5313,0.03695979,0.9896896,5.727985
62.60107,100.2083,0.03753884,0.9898543,5.721527
62.65115,97.53816,-0.01400009,0.9896896,5.721527
62.70138,96.39381,-0.03890086,0.9898543,5.721527
62.7514,106.0571,-0.04469182,0.9896896,5.721527
62.80095,134.157,-0.04584993,0.9898543,5.715067
62.85053,135.6828,-0.059169,0.9898543,5.721527
62.90033,129.8339,-0.1002843,0.9896896,5.715067
62.952,123.8579,-0.1495069,0.9898543,5.721527
63.00213,119.9163,-0.1529815,0.9896896,5.715067
63.05056,118.0091,-0.162826,0.9898543,5.715067
63.10114,117.2462,-0.1587723,0.9898543,5.715067
63.15024,114.9575,-0.1645633,0.9896896,5.715067
63.20185,106.6929,-0.1489279,0.9898543,5.715067
63.25234,103.1327,-0.09565169,0.9898543,5.715067
63.30039,98.30104,-0.08522799,0.9898543,5.715067
63.35039,94.35944,-0.04584993,0.9896896,5.715067
63.40134,96.13953,0.006268051,0.9898543,5.715067
63.45198,122.0779,0.09139419,0.9896896,5.715067
63.50236,134.0298,0.1591477,0.9898543,5.715067
63.55072,131.1054,0.193893,0.9898543,5.708608
63.60151,125.8923,0.2506437,0.9896896,5.708608
63.651,120.4249,0.3317162,0.9896896,5.715067
63.702,118.0091,0.3965742,0.9898543,5.715067
63.75171,114.5761,0.446955,0.9896896,5.708608
63.80058,113.4317,0.4863332,0.9898543,5.708608
63.85033,104.1499,0.5523493,0.9896896,5.715067
63.90095,99.06393,0.6652716,0.9896896,5.708608
63.95145,98.04675,0.7150732,0.9896896,5.708608
64.00158,92.83366,0.7278132,0.9898543,5.708608
64.05048,94.48659,0.7567678,0.9898543,5.708608
64.10098,109.6173,0.7874596,0.9898543,5.708608
64.1511,128.3081,0.8065693,0.9896896,5.708608
64.20171,127.4181,0.8210465,0.9900191,5.708608
64.25195,123.6036,0.8592666,0.9898543,5.708608
64.30033,114.5761,0.8731647,0.9898543,5.708608
64.35036,112.1602,0.8922746,0.9896896,5.702149
64.40108,112.1602,0.900961,0.9898543,5.702149
64.4517,111.2702,0.9003819,0.9898543,5.708608
64.50177,104.4042,0.9003819,0.9896896,5.702149
64.55093,100.2083,0.9038565,0.9896896,5.702149
64.60033,98.6825,0.907331,0.9898543,5.702149
64.65032,94.61374,0.9067519,0.9898543,5.702149
64.70145,97.53816,0.9044355,0.9898543,5.708608
64.75196,124.2394,0.8963282,0.9898543,5.702149
64.80109,127.9267,0.8801138,0.9896896,5.702149
64.85112,126.2737,0.8685319,0.9896896,5.702149
64.90114,117.6276,0.8633202,0.9898543,5.702149
64.95133,111.7788,0.8447892,0.9896896,5.702149
65.00208,111.5245,0.7828267,0.9898543,5.702149
65.05119,111.3974,0.7654541,0.9898543,5.702149
65.10145,111.5245,0.7139151,0.9898543,5.702149
65.15035,111.0159,0.6629552,0.9898543,5.702149
65.20212,98.80965,0.5627729,0.9898543,5.702149
65.25132,94.2323,0.4527459,0.9898543,5.69569
65.30045,92.57936,0.440585,0.9900191,5.702149
65.3504,107.9643,0.4064187,0.9898543,5.69569
65.40119,131.8683,0.4000487,0.9896896,5.702149
65.45127,132.2497,0.3855715,0.9898543,5.702149
65.50208,126.1466,0.3786224,0.9898543,5.69569
65.55094,118.3905,0.3710943,0.9898543,5.69569
65.60035,115.4661,0.3224509,0.9898543,5.69569
65.6507,113.8132,0.2888637,0.9896896,5.69569
65.70194,113.1774,0.2570137,0.9896896,5.69569
65.75139,111.6517,0.2193729,0.9898543,5.69569
65.80083,103.2598,0.2130029,0.9898543,5.69569
65.85048,100.5897,0.1718876,0.9900191,5.69569
65.90094,97.15671,0.1064505,0.9898543,5.69569
65.95232,100.4626,0.05317434,0.9898543,5.69569
66.00231,128.9439,0.03638073,0.9898543,5.68923
66.05122,134.5384,0.01727081,0.9898543,5.68923
66.10132,133.3941,-0.006471863,0.9898543,5.69569
66.15133,128.6896,-0.00820913,0.9898543,5.68923
66.20219,120.1706,-0.004155545,0.9898543,5.69569
66.25231,118.3905,-0.006471863,0.9896896,5.68923
66.30094,116.8647,-0.03253096,0.9898543,5.68923
66.35046,114.7032,-0.05106173,0.9898543,5.68923
66.40107,108.6001,-0.08754442,0.9896896,5.68923
66.45161,102.7513,-0.1054961,0.9898543,5.68923
66.50162,100.0811,-0.2462149,0.9898543,5.68923
66.55122,97.15671,-0.3371319,0.9896896,5.682772
66.60107,100.5897,-0.344081,0.9898543,5.68923
66.65033,120.4249,-0.3469764,0.9898543,5.68923
66.70156,136.1913,-0.3481345,0.9896896,5.68923
66.75218,131.9954,-0.3417646,0.9898543,5.68923
66.80056,129.4525,-0.3388692,0.9898543,5.68923
66.85131,125.1294,-0.3353946,0.9898543,5.682772
66.90031,123.6036,-0.3272873,0.9898543,5.682772
66.95171,121.5692,-0.3238128,0.9898543,5.68923
67.00191,120.6792,-0.3145474,0.9896896,5.68923
67.05083,108.3458,-0.2855929,0.9898543,5.682772
67.10118,102.2427,-0.1912013,0.9898543,5.682772
67.15031,97.53816,-0.1471906,0.9896896,5.682772
67.20168,96.13953,-0.1049171,0.9898543,5.682772
67.2515,96.90242,-0.0423754,0.9898543,5.682772
67.30119,118.8991,0.02306166,0.9896896,5.682772
67.35072,132.2497,0.09313145,0.9896896,5.676312
67.40093,131.4868,0.162043,0.9896896,5.682772
67.45144,126.4009,0.2251638,0.9896896,5.682772
67.50134,119.1534,0.2755446,0.9898543,5.682772
67.55118,117.5005,0.3600917,0.9896896,5.682772
67.60107,115.8476,0.4203168,0.9898543,5.682772
67.65093,114.7032,0.4712767,0.9898543,5.682772
67.70193,104.0227,0.5129711,0.9898543,5.682772
67.75206,101.7341,0.5940436,0.9898543,5.676312
67.80118,97.66531,0.6768534,0.9898543,5.682772
67.85069,92.96081,0.6814862,0.9798071,5.676312
67.90144,91.68932,0.7278132,0.9799718,5.676312
67.95147,111.906,0.7706659,0.9798071,5.676312
68.00158,128.6896,0.7978832,0.9798071,5.676312
68.05058,129.071,0.8077277,0.9798071,5.676312
68.10118,124.4937,0.8436311,0.9796425,5.676312
68.15073,114.4489,0.8685319,0.9799718,5.676312
68.2019,111.7788,0.8725857,0.9798071,5.676312
68.25219,110.8888,0.8801138,0.9799718,5.669853
68.30116,110.6345,0.8928536,0.9798071,5.676312
68.35059,110.5073,0.9113846,0.9796425,5.676312
68.40056,106.6929,0.9194918,0.9798071,5.676312
68.45217,94.35944,0.9171755,0.9798071,5.676312
68.50186,91.68932,0.9160172,0.9798071,5.669853
68.55141,96.90242,0.9154382,0.9798071,5.669853
68.60045,125.1294,0.9096472,0.9799718,5.669853
68.65145,130.9782,0.8940119,0.9799718,5.676312
68.70242,124.748,0.8864838,0.9798071,5.669853
68.75158,115.339,0.8864838,0.9798071,5.669853
68.80058,111.3974,0.8673738,0.9798071,5.669853
68.85087,109.8716,0.8181513,0.9798071,5.669853
68.90073,109.363,0.8083068,0.9798071,5.669853
68.95174,109.4901,0.7857221,0.9798071,5.669853
69.00222,103.1327,0.7486604,0.9799718,5.669853
69.05074,100.3354,0.706387,0.9798071,5.669853
69.10059,95.12233,0.6218399,0.9799718,5.669853
69.15088,92.7065,0.5338183,0.9798071,5.663394
69.20232,111.7788,0.5193411,0.9898543,5.663394
69.25174,124.4937,0.5037058,0.9898543,5.669853
69.30135,130.2153,0.492703,0.9898543,5.669853
69.35108,121.6964,0.4921239,0.9898543,5.669853
69.40148,112.4145,0.4817003,0.9896896,5.663394
69.4523,111.5245,0.459116,0.9898543,5.663394
69.50165,112.0331,0.441164,0.9898543,5.663394
69.55109,111.6517,0.434794,0.9898543,5.663394
69.60059,110.1259,0.4423223,0.9898543,5.663394
69.65065,101.4798,0.447534,0.9896896,5.663394
69.70185,96.90242,0.401207,0.9898543,5.663394
69.75165,93.978,0.3207135,0.9898543,5.663394
69.80071,98.30104,0.2807563,0.9898543,5.663394
69.85052,121.6964,0.2657,0.9798071,5.656935
69.90121,134.5384,0.2465901,0.9799718,5.656935
69.95248,133.1398,0.2379038,0.9798071,5.663394
70.00208,125.8923,0.2379038,0.9798071,5.656935
70.05037,120.9335,0.2350083,0.9798071,5.663394
70.10052,117.2462,0.2251638,0.9796425,5.656935
70.15101,116.229,0.2083702,0.9798071,5.656935
70.20248,115.339,0.1747831,0.9799718,5.663394
70.2523,108.7272,0.1058714,0.9799718,5.656935
70.30048,104.6585,0.1035551,0.9798071,5.656935
70.35047,99.19109,0.02653619,0.9796425,5.656935
70.40139,97.53816,-0.01979094,0.9798071,5.656935
70.45198,99.19109,-0.04295456,0.9798071,5.656935
70.50201,123.8579,-0.04353361,0.9898543,5.656935
70.55062,136.8271,-0.05048267,0.9896896,5.656935
70.6006,134.6656,-0.05858995,0.9898543,5.650476
70.65108,128.5624,-0.04758719,0.9898543,5.650476
70.70213,122.9679,-0.03484728,0.9896896,5.656935
70.75252,120.0435,-0.02963548,0.9896896,5.650476
70.80115,119.2806,-0.03253096,0.9896896,5.650476
70.85099,117.8819,-0.04816635,0.9898543,5.650476
70.90161,109.2358,-0.07422534,0.9898543,5.656935
70.95171,104.6585,-0.07306713,0.9898543,5.650476
71.00163,100.844,-0.1002843,0.9898543,5.650476
71.05054,98.9368,-0.1222897,0.9898543,5.650476
71.10098,103.1327,-0.1083916,0.9896896,5.650476
71.15157,118.0091,-0.06264354,0.9898543,5.644017
71.20167,133.2669,-0.02963548,0.9898543,5.650476
71.25218,133.5212,0.01495438,0.9898543,5.650476
71.3006,124.6208,0.1058714,0.9898543,5.650476
71.35062,119.1534,0.2083702,0.9898543,5.650476
71.4006,117.119,0.2436946,0.9898543,5.644017
71.45234,114.1946,0.3062363,0.9898543,5.650476
71.50181,113.5589,0.3815179,0.9896896,5.650476
71.55138,111.7788,0.4284242,0.9898543,5.644017
71.60145,102.497,0.4718558,0.9896896,5.644017
71.65114,98.80965,0.5176039,0.9896896,5.644017
71.70197,96.39381,0.5210785,0.9898543,5.644017
71.75196,92.32506,0.5859365,0.9898543,5.644017
71.80147,106.5657,0.6774324,0.9900191,5.644017
71.85099,128.0538,0.7278132,0.9900191,5.644017
71.90057,130.5968,0.7602423,0.9898543,5.637558
71.95259,124.748,0.7863012,0.9896896,5.644017
72.00233,118.3905,0.8169929,0.9898543,5.644017
72.05099,116.1019,0.8274165,0.9898543,5.644017
72.10072,114.9575,0.8471056,0.9898543,5.637558
72.15134,114.4489,0.8627411,0.9896896,5.637558
72.20066,113.4317,0.8777974,0.9898543,5.637558
72.25043,107.4557,0.8812719,0.9898543,5.637558
72.30147,101.4798,0.8905374,0.9896896,5.637558
72.3521,97.41101,0.8998027,0.9898543,5.637558
72.40134,95.75809,0.8969074,0.9900191,5.637558
72.45071,96.01237,0.8957491,0.9896896,5.637558
72.50113,119.1534,0.8980655,0.9798071,5.637558
72.55096,131.3597,0.8899583,0.9798071,5.637558
72.60143,130.2153,0.8789555,0.9798071,5.631098
72.65134,123.9851,0.8725857,0.9798071,5.637558
72.70109,114.7032,0.8517383,0.9799718,5.631098
72.75086,112.9231,0.8314701,0.9796425,5.631098
72.80139,115.2118,0.8100439,0.9798071,5.631098
72.85236,113.9403,0.7863012,0.9798071,5.637558
72.90063,108.7272,0.7202851,0.9798071,5.637558
72.95055,104.7856,0.7052289,0.9798071,5.631098
73.00159,100.4626,0.5529283,0.9799718,5.631098
73.05063,98.9368,0.511813,0.9798071,5.631098
73.10184,100.7169,0.4950194,0.9798071,5.631098
73.15075,121.0607,0.4863332,0.9799718,5.631098
73.20081,132.7583,0.4747512,0.9799718,5.631098
73.25131,132.3769,0.459695,0.9798071,5.631098
73.30156,121.1878,0.4521669,0.9798071,5.631098
73.35235,117.7548,0.4104723,0.9798071,5.631098
73.40091,116.3562,0.3936787,0.9796425,5.62464
73.45134,116.229,0.3519843,0.9798071,5.631098
73.50158,115.8476,0.2900218,0.9798071,5.62464
73.55104,104.0227,0.2431156,0.9799718,5.631098
73.60258,101.8612,0.2240057,0.9798071,5.62464
73.65059,99.06393,0.1272977,0.9799718,5.62464
73.70128,95.75809,0.06243972,0.9798071,5.631098
73.75095,100.3354,0.04506706,0.9798071,5.62464
73.80116,119.9163,0.03116893,0.9799718,5.62464
73.85143,133.1398,-0.01979094,0.9798071,5.62464
73.90124,131.8683,-0.03832181,0.9796425,5.62464
73.95106,127.9267,-0.03542633,0.9796425,5.62464
74.00119,121.9507,-0.03079369,0.9798071,5.62464
74.05107,118.1362,-0.01863272,0.9799718,5.62464
74.10146,116.9919,-0.0001019595,0.9798071,5.62464
74.15134,114.7032,-0.004734598,0.9798071,5.62464
74.20142,107.2015,-0.02789821,0.9799718,5.62464
74.25134,104.5313,-0.03484728,0.9799718,5.62464
74.30108,100.844,-0.07769988,0.9798071,5.62464
74.35206,94.2323,-0.162247,0.9798071,5.61818
74.40131,96.26666,-0.2068368,0.9798071,5.62464
74.45071,111.6517,-0.2520057,0.9798071,5.61818
74.50091,131.8683,-0.2832765,0.9798071,5.61818
74.5506,133.5212,-0.3018074,0.9796425,5.62464
74.60184,127.7995,-0.2937001,0.9798071,5.61818
74.65117,121.315,-0.2415821,0.9798071,5.61818
74.70142,119.2806,-0.1674588,0.9799718,5.61818
74.75155,117.2462,-0.1634051,0.9799718,5.62464
74.80053,116.1019,-0.1292388,0.9796425,5.61818
74.85252,107.9643,-0.07654166,0.9799718,5.61818
74.90093,101.6069,-0.02789821,0.9798071,5.61818
74.95062,99.06393,0.04564612,0.9796425,5.611721
75.00117,97.15671,0.08849871,0.9798071,5.61818
75.05069,92.83366,0.1742039,0.9796425,5.611721
75.10207,99.57254,0.2234265,0.9799718,5.61818
75.15105,126.0195,0.2616465,0.9796425,5.61818
75.20067,132.8855,0.3380862,0.9798071,5.61818
75.2507,130.8511,0.382676,0.9798071,5.611721
75.30135,125.2566,0.4457969,0.9799718,5.61818
75.35236,118.5177,0.5031266,0.9798071,5.611721
75.40053,115.5933,0.5297647,0.9798071,5.611721
75.45154,113.3046,0.635738,0.9798071,5.61818
75.50123,113.3046,0.6849607,0.9799718,5.611721
75.55111,105.93,0.7144942,0.9798071,5.611721
75.6017,103.1327,0.7573469,0.9798071,5.611721
75.65129,95.88522,0.7880386,0.9798071,5.611721
75.70055,94.61374,0.7805105,0.9798071,5.611721
75.75132,94.10515,0.7834057,0.9798071,5.611721
75.80106,108.4729,0.7967248,0.9799718,5.611721
75.85221,129.7068,0.8140975,0.9799718,5.611721
75.90128,129.8339,0.8193094,0.9798071,5.605262
75.95054,123.2222,0.8447892,0.9798071,5.605262
76.00105,116.8647,0.8772183,0.9798071,5.611721
76.05102,113.686,0.8841674,0.9798071,5.605262
76.10193,112.2874,0.8969074,0.9798071,5.611721
76.15133,112.1602,0.9021191,0.9798071,5.605262
76.20096,111.0159,0.9026982,0.9798071,5.605262
76.25137,104.1499,0.90791,0.9798071,5.605262
76.3007,100.2083,0.8974864,0.9798071,5.605262
76.35157,97.02956,0.8801138,0.9798071,5.605262
76.40144,96.64812,0.8442101,0.9796425,5.605262
76.45073,113.1774,0.8164139,0.9798071,5.605262
76.50079,129.1982,0.8030948,0.9798071,5.605262
76.55161,128.6896,0.7834057,0.9798071,5.598803
76.60156,119.7892,0.7758776,0.9798071,5.605262
76.65136,114.4489,0.752135,0.9799718,5.598803
76.70101,113.0503,0.7162315,0.9798071,5.605262
76.75136,112.1602,0.6982798,0.9798071,5.598803
76.80136,110.7616,0.660639,0.9799718,5.605262
76.85236,103.6413,0.5274485,0.9799718,5.598803
76.90095,100.0811,0.5193411,0.9799718,5.598803
76.95059,95.12233,0.434794,0.9798071,5.598803
77.00056,94.61374,0.3861506,0.9798071,5.605262
77.05154,96.77527,0.317818,0.9798071,5.598803
77.10252,122.5864,0.2998663,0.9798071,5.598803
77.15051,133.9027,0.2940754,0.9798071,5.598803
77.2009,130.9782,0.2917592,0.9896896,5.598803
77.25081,125.3837,0.2963918,0.9896896,5.598803
77.30056,117.6276,0.2958127,0.9898543,5.598803
77.35261,115.9747,0.2906008,0.9896896,5.598803
77.40138,115.339,0.2680164,0.9898543,5.598803
77.45129,115.4661,0.2465901,0.9898543,5.598803
77.50085,105.4214,0.2066329,0.9898543,5.592343
77.55055,100.2083,0.1736248,0.9898543,5.592343
77.60248,96.77527,0.04912065,0.9898543,5.592343
77.65061,94.61374,0.01379617,0.9896896,5.592343
77.70055,103.6413,-0.03426823,0.9898543,5.592343
77.75126,132.2497,-0.05743174,0.9898543,5.592343
77.80083,134.6656,-0.09391443,0.9898543,5.592343
77.85198,130.724,-0.1442951,0.9898543,5.592343
77.9007,123.6036,-0.1321343,0.9900191,5.592343
77.95138,118.8991,-0.1066543,0.9896896,5.598803
78.00131,117.6276,-0.09101895,0.9896896,5.592343
78.05113,115.9747,-0.09738896,0.9898543,5.592343
78.10156,115.339,-0.1396624,0.9898543,5.592343
78.15083,104.5313,-0.1987295,0.9896896,5.592343
78.20054,100.2083,-0.214944,0.9898543,5.592343
78.25072,97.28386,-0.3533463,0.9898543,5.592343
78.3014,95.63092,-0.3782472,0.9898543,5.592343
78.35209,97.41101,-0.4135717,0.9896896,5.592343
78.4016,130.9782,-0.4135717,0.9898543,5.592343
78.45057,135.1741,-0.4054644,0.9898543,5.585885
78.50124,132.6312,-0.377089,0.9898543,5.592343
78.55128,124.6208,-0.3400274,0.9896896,5.585885
78.60234,118.8991,-0.2161022,0.9898543,5.592343
78.65108,116.8647,-0.1674588,0.9896896,5.585885
78.7011,115.9747,-0.06264354,0.9898543,5.585885
78.75127,114.5761,0.05954424,0.9898543,5.585885
78.80116,105.93,0.1823112,0.9898543,5.585885
78.85204,103.6413,0.2454319,0.9898543,5.585885
78.90131,99.06393,0.2720701,0.9896896,5.585885
78.95125,96.13953,0.2946544,0.9896896,5.585885
79.00051,99.31824,0.362987,0.9896896,5.585885
79.05127,130.724,0.4162633,0.9896896,5.585885
79.10214,134.157,0.492703,0.9900191,5.585885
79.15156,133.0126,0.5262902,0.9896896,5.585885
79.20078,124.2394,0.6675881,0.9898543,5.585885
79.2505,120.8064,0.7307087,0.9898543,5.585885
79.30051,117.2462,0.7851431,0.9896896,5.585885
79.35152,115.8476,0.8146768,0.9898543,5.579425
79.40153,115.339,0.8251004,0.9898543,5.579425
79.45115,109.1087,0.8378401,0.9898543,5.579425
79.50053,104.4042,0.8534756,0.9898543,5.579425
79.55093,100.2083,0.8633202,0.9896896,5.579425
79.60151,97.66531,0.8621619,0.9898543,5.579425
79.65063,97.79247,0.8696902,0.9896896,5.579425
79.70154,123.2222,0.8801138,0.9898543,5.579425
79.75162,132.7583,0.8940119,0.9898543,5.579425
79.80151,129.5796,0.9050146,0.9898543,5.579425
79.85227,119.662,0.9223872,0.9900191,5.579425
79.90103,113.686,0.9241246,0.9898543,5.579425
79.95086,113.0503,0.9264408,0.9898543,5.579425
80.001,112.5417,0.9247037,0.9898543,5.579425
80.05049,111.7788,0.9154382,0.9898543,5.572966
80.10219,103.2598,0.8998027,0.9898543,5.579425
80.15109,99.95398,0.8656364,0.9896896,5.579425
80.20078,96.39381,0.7955667,0.9898543,5.579425
80.25156,94.74089,0.7805105,0.9898543,5.579425
80.30156,107.9643,0.764875,0.9900191,5.572966
80.35255,127.1638,0.7515559,0.9898543,5.572966
80.40076,128.8167,0.7208642,0.9898543,5.572966
80.45064,123.8579,0.700596,0.9898543,5.572966
80.50136,111.2702,0.6722207,0.9898543,5.572966
80.55154,109.1087,0.5662474,0.9896896,5.579425
80.60249,109.4901,0.5315021,0.9896896,5.572966
80.65062,109.4901,0.512392,0.9898543,5.572966
80.70061,107.0743,0.4799632,0.9896896,5.572966
80.75062,99.57254,0.4689603,0.9896896,5.572966
80.80087,94.2323,0.382097,0.9898543,5.566507
80.85236,91.68932,0.3270835,0.9898543,5.566507
80.90103,104.4042,0.2842308,0.9896896,5.572966
80.95087,128.181,0.2824937,0.9896896,5.572966
81.00089,134.5384,0.2738072,0.9900191,5.566507
81.05099,129.8339,0.258751,0.9898543,5.566507
81.10186,122.8407,0.2662791,0.9900191,5.566507
81.15128,118.0091,0.2790191,0.9896896,5.566507
81.20101,115.9747,0.2749656,0.9898543,5.566507
81.25125,115.2118,0.2442737,0.9898543,5.572966
81.30163,114.8304,0.2257429,0.9898543,5.566507
81.35262,105.1671,0.1933139,0.9898543,5.566507
81.40126,100.7169,0.1857857,0.9896896,5.566507
81.45154,98.30104,0.05780698,0.9898543,5.566507
81.50085,95.37663,0.02537798,0.9898543,5.566507
81.55161,104.277,-0.01226282,0.9898543,5.566507
81.60202,135.047,-0.03600549,0.9898543,5.560048
81.65086,136.4456,-0.1083916,0.9898543,5.566507
81.70086,133.5212,-0.1541397,0.9896896,5.566507
81.75062,125.8923,-0.1581933,0.9900191,5.566507
81.80113,119.7892,-0.1657215,0.9898543,5.566507
81.85162,117.7548,-0.1877268,0.9896896,5.566507
81.90175,117.6276,-0.3070192,0.9896896,5.560048
81.95062,116.229,-0.3637699,0.9900191,5.566507
82.00125,106.3114,-0.4118344,0.9898543,5.560048
82.051,101.8612,-0.4164671,0.9898543,5.560048
82.10236,98.55534,-0.4882741,0.9898543,5.560048
82.15137,97.53816,-0.5108587,0.9898543,5.560048
82.20124,109.8716,-0.5253358,0.9898543,5.560048
82.2515,130.8511,-0.5907729,0.9898543,5.560048
82.30088,136.3185,-0.5849821,0.9898543,5.560048
82.35179,131.4868,-0.5386549,0.9896896,5.560048
82.40148,121.8235,-0.4512125,0.9898543,5.560048
82.45173,118.8991,-0.3307619,0.9898543,5.560048
82.50148,117.8819,-0.1610887,0.9896896,5.560048
82.55135,118.0091,-0.06495996,0.9898543,5.560048
82.60224,116.1019,0.03753884,0.9898543,5.560048
82.65079,105.1671,0.1452494,0.9898543,5.553588
82.70162,100.844,0.2147402,0.9898543,5.560048
82.75079,97.53816,0.2512228,0.9898543,5.553588
82.80076,95.24948,0.376306,0.9898543,5.560048
82.8516,108.0915,0.4701186,0.9898543,5.553588
82.90075,131.7411,0.589411,0.9898543,5.553588
82.95174,133.7755,0.7104406,0.9896896,5.560048
83.00088,130.2153,0.7758776,0.9898543,5.553588
83.05152,120.9335,0.8326284,0.9898543,5.553588
83.102,118.3905,0.8708483,0.9900191,5.560048
83.15122,115.7204,0.8974864,0.9896896,5.553588
83.20086,116.229,0.9125427,0.9898543,5.553588
83.25175,113.8132,0.9218082,0.9900191,5.553588
83.30098,105.5485,0.9270199,0.9898543,5.553588
83.35213,100.3354,0.9270199,0.9896896,5.553588
83.4016,96.13953,0.9270199,0.9896896,5.553588
83.45137,94.86804,0.9270199,0.9898543,5.560048
83.50111,120.6792,0.9287573,0.9796425,5.553588
83.55123,133.0126,0.9333899,0.9798071,5.547129
83.60251,130.5968,0.9391809,0.9798071,5.553588
83.65125,123.9851,0.947288,0.9799718,5.553588
83.70161,116.8647,0.9739261,0.9799718,5.553588
83.75136,113.3046,0.9959317,0.9798071,5.553588
83.8016,113.3046,0.9930362,0.9798071,5.553588
83.85225,112.5417,0.9646606,0.9799718,5.547129
83.90066,111.6517,0.940339,0.9798071,5.547129
83.95165,100.4626,0.9374434,0.9799718,5.553588
84.00072,99.06393,0.9304944,0.9799718,5.547129
84.05072,97.66531,0.8957491,0.9798071,5.547129
84.10261,100.5897,0.8436311,0.9798071,5.553588
84.15126,122.205,0.8245211,0.9798071,5.547129
84.20123,131.7411,0.7984622,0.9798071,5.553588
84.25127,130.724,0.7816686,0.9799718,5.553588
84.30059,116.4833,0.7747195,0.9798071,5.547129
84.35262,115.2118,0.7347623,0.9798071,5.547129
84.40147,112.9231,0.7115987,0.9798071,5.547129
84.45152,113.0503,0.700596,0.9799718,5.547129
84.50099,110.5073,0.5952017,0.9798071,5.547129
84.5515,102.1155,0.5430838,0.9798071,5.547129
84.60263,96.90242,0.4869122,0.9798071,5.547129
84.65109,94.48659,0.4625905,0.9798071,5.547129
84.70161,98.30104,0.4174213,0.9799718,5.547129
84.75151,128.5624,0.4156842,0.9798071,5.547129
84.80147,134.7927,0.4087351,0.9798071,5.54067
84.85221,130.2153,0.3936787,0.9799718,5.547129
84.90109,122.7136,0.3873089,0.9798071,5.54067
84.95102,116.1019,0.3618288,0.9798071,5.547129
85.00059,114.0675,0.3317162,0.9799718,5.547129
85.05064,112.9231,0.2998663,0.9798071,5.54067
85.10259,111.3974,0.2795982,0.9798071,5.547129
85.15078,104.0227,0.2518019,0.9798071,5.54067
85.20124,98.9368,0.2257429,0.9798071,5.54067
85.25084,97.28386,0.1776784,0.9799718,5.54067
85.30121,96.39381,0.102976,0.9798071,5.54067
85.35223,120.6792,0.0601234,0.9798071,5.54067
85.40089,137.2085,0.03753884,0.9798071,5.54067
85.4516,134.157,0.0120589,0.9798071,5.54067
85.5016,129.8339,0.002214466,0.9798071,5.54067
85.55125,119.1534,0.001056253,0.9798071,5.54067
85.60221,116.8647,-0.007051023,0.9798071,5.54067
85.65134,115.5933,-0.03890086,0.9798071,5.54067
85.70146,114.9575,-0.08580715,0.9799718,5.534211
85.75076,114.0675,-0.1744078,0.9798071,5.54067
85.8016,102.6241,-0.1859895,0.9798071,5.534211
85.85161,98.30104,-0.3058611,0.9799718,5.54067
85.90137,94.35944,-0.3585581,0.9798071,5.54067
85.95098,104.9128,-0.3701399,0.9796425,5.534211
86.00088,130.9782,-0.3730354,0.9799718,5.534211
86.05137,135.6828,-0.3794054,0.9798071,5.534211
86.10172,132.6312,-0.3765099,0.9799718,5.534211
86.15102,127.1638,-0.3550836,0.9798071,5.534211
86.201,119.5349,-0.2983329,0.9799718,5.534211
86.25149,119.2806,-0.2027831,0.9798071,5.534211
86.30164,116.1019,-0.1506651,0.9798071,5.534211
86.35164,114.5761,-0.09333527,0.9796425,5.534211
86.40073,105.6757,-0.05511542,0.9798071,5.534211
86.45101,100.9712,0.03001072,0.9799718,5.534211
86.50148,96.39381,0.06591425,0.9799718,5.534211
86.55161,93.59654,0.08907788,0.9798071,5.534211
86.60183,96.39381,0.162043,0.9798071,5.534211
86.65109,122.9679,0.2170565,0.9798071,5.527751
86.70132,135.6828,0.2703328,0.9799718,5.534211
86.75073,133.3941,0.3496681,0.9798071,5.534211
86.80097,125.1294,0.4214751,0.9798071,5.534211
86.85287,117.6276,0.5008103,0.9799718,5.534211
86.90163,115.339,0.5899901,0.9798071,5.534211
86.95089,114.5761,0.7011751,0.9798071,5.527751
87.00161,112.2874,0.7457649,0.9799718,5.534211
87.05097,104.5313,0.783985,0.9798071,5.527751
87.10246,97.9196,0.8100439,0.9798071,5.527751
87.1512,96.13953,0.8210465,0.9798071,5.527751
87.20145,93.08795,0.8198884,0.9798071,5.527751
87.25084,92.96081,0.8268375,0.9799718,5.534211
87.30158,111.906,0.8500011,0.9798071,5.527751
87.35184,131.8683,0.8691111,0.9796425,5.527751
87.40083,128.4353,0.8731647,0.9798071,5.527751
87.45121,116.229,0.8864838,0.9798071,5.527751
87.50108,111.3974,0.8986446,0.9798071,5.527751
87.55101,111.3974,0.9032772,0.9799718,5.527751
87.60258,110.253,0.9061727,0.9799718,5.527751
87.65157,111.3974,0.8969074,0.9798071,5.527751
87.7012,102.8784,0.8888,0.9799718,5.527751
87.75111,96.77527,0.8667947,0.9798071,5.527751
87.8017,91.81647,0.817572,0.9798071,5.527751
87.85196,92.07076,0.7996203,0.9798071,5.527751
87.9012,113.9403,0.7799312,0.9798071,5.527751
87.95119,130.2153,0.7741405,0.9798071,5.521293
88.00162,128.8167,0.7567678,0.9798071,5.527751
88.05103,119.662,0.758505,0.9799718,5.521293
88.10245,110.253,0.7451859,0.9798071,5.527751
88.1512,107.9643,0.7087034,0.9798071,5.521293
88.2012,107.8372,0.700596,0.9798071,5.521293
88.25171,106.6929,0.6629552,0.9801366,5.521293
88.30087,102.7513,0.5367138,0.9799718,5.521293
88.35282,96.52097,0.5286066,0.9799718,5.521293
88.40096,93.08795,0.4851748,0.9798071,5.521293
88.45119,91.68932,0.4770676,0.9799718,5.521293
88.50132,100.7169,0.446955,0.9898543,5.521293
88.55182,131.4868,0.4376895,0.9898543,5.521293
88.60246,132.6312,0.4249497,0.9898543,5.521293
88.65146,126.7823,0.4208959,0.9898543,5.521293
88.70097,116.6105,0.4272659,0.9898543,5.514833
88.75183,112.6688,0.4290033,0.9898543,5.521293
88.80122,112.2874,0.4237913,0.9898543,5.521293
88.85229,111.3974,0.3983115,0.9900191,5.521293
88.90119,107.3286,0.3207135,0.9898543,5.514833
88.95133,101.0983,0.3016035,0.9896896,5.521293
89.00095,96.90242,0.2338501,0.9896896,5.521293
89.05119,94.48659,0.2095284,0.9898543,5.521293
89.10199,104.0227,0.1649385,0.9898543,5.521293
89.15096,131.8683,0.1411958,0.9898543,5.521293
89.20096,135.8099,0.0821287,0.9896896,5.514833
89.25083,130.5968,0.06417699,0.9898543,5.514833
89.30095,116.6105,0.06649331,0.9898543,5.514833
89.35184,113.9403,0.06359793,0.9896896,5.514833
89.40083,113.0503,0.05085791,0.9898543,5.514833
89.45134,111.0159,0.03174799,0.9900191,5.514833
89.50169,108.8544,0.01553354,0.9898543,5.514833
89.55157,104.6585,0.007426264,0.9900191,5.514833
89.60236,96.01237,-0.04411266,0.9898543,5.514833
89.65083,92.19792,-0.1570351,0.9898543,5.514833
89.70096,98.04675,-0.3359737,0.9898543,5.514833
89.75099,130.2153,-0.4083599,0.9898543,5.514833
89.80145,134.9198,-0.3990944,0.9898543,5.514833
89.85289,131.1054,-0.3904081,0.9900191,5.514833
89.90106,120.5521,-0.3400274,0.9896896,5.514833
89.95181,116.1019,-0.2937001,0.9898543,5.514833
90.00171,115.0847,-0.253164,0.9896896,5.508374
90.051,113.686,-0.2346331,0.9896896,5.514833
90.10285,112.5417,-0.2004668,0.9898543,5.508374
90.15071,105.2942,-0.2172604,0.9898543,5.508374
90.20131,99.31824,-0.2635875,0.9898543,5.514833
90.25143,98.30104,-0.1877268,0.9898543,5.514833
90.30181,111.1431,-0.1680378,0.9898543,5.508374
90.3527,133.0126,-0.1558769,0.9896896,5.514833
90.4012,134.5384,-0.1552978,0.9898543,5.508374
90.45107,130.3425,-0.1483487,0.9898543,5.501915
90.50086,118.5177,-0.104338,0.9898543,5.508374
90.55181,116.1019,-0.1118661,0.9898543,5.508374
90.60231,114.5761,-0.1425579,0.9898543,5.508374
90.65184,114.1946,-0.1663006,0.9900191,5.508374
90.70132,109.1087,-0.2132067,0.9898543,5.508374
90.75118,102.6241,-0.3753517,0.9898543,5.508374
90.80133,100.4626,-0.4263116,0.9898543,5.508374
90.85266,112.796,-0.4917487,0.9900191,5.508374
90.90173,129.9611,-0.5154913,0.9896896,5.508374
90.95094,136.9542,-0.5473413,0.9896896,5.508374
91.00109,132.8855,-0.5983012,0.9898543,5.508374
91.05132,124.748,-0.5728212,0.9898543,5.508374
91.10245,119.662,-0.5670303,0.9898543,5.508374
91.15157,117.6276,-0.5768748,0.9898543,5.508374
91.20157,116.8647,-0.6035129,0.9898543,5.501915
91.25085,115.7204,-0.6191483,0.9898543,5.508374
91.30173,114.9575,-0.6764781,0.9900191,5.501915
91.35243,102.497,-0.7604461,0.9898543,5.501915
91.40131,105.0399,-0.7917169,0.9898543,5.508374
91.45171,117.6276,-0.8044569,0.9898543,5.501915
91.50134,137.0814,-0.8322532,0.9898543,5.501915
91.55155,137.59,-0.8467304,0.9896896,5.508374
91.60259,131.7411,-0.8403605,0.9898543,5.501915
91.65155,125.1294,-0.8397813,0.9898543,5.501915
91.70122,123.095,-0.8415186,0.9898543,5.501915
91.75107,121.1878,-0.8745267,0.9898543,5.501915
91.80132,119.662,-0.9231702,0.9898543,5.508374
91.85172,110.6345,-0.8942157,0.9898543,5.501915
91.90188,105.8028,-0.8710521,0.9898543,5.501915
91.95071,104.4042,-0.8658403,0.9898543,5.501915
92.00068,107.5829,-0.8206714,0.9896896,5.501915
92.05174,130.2153,-0.7222262,0.9900191,5.501915
92.10255,140.0058,-0.6017757,0.9898543,5.501915
92.1519,136.9542,-0.5201241,0.9898543,5.501915
92.20078,127.1638,-0.3695609,0.9898543,5.501915
92.25124,123.6036,-0.1663006,0.9898543,5.501915
92.3013,120.0435,-0.04816635,0.9898543,5.501915
92.3521,118.3905,0.06128151,0.9898543,5.501915
92.4012,117.2462,0.1718876,0.9898543,5.501915
92.4518,109.8716,0.2448529,0.9900191,5.501915
92.50156,103.1327,0.2824937,0.9898543,5.501915
92.5508,99.06393,0.323609,0.9898543,5.501915
92.6022,102.497,0.3907834,0.9896896,5.501915
92.65118,128.3081,0.460274,0.9898543,5.501915
92.7018,134.9198,0.5280275,0.9898543,5.501915
92.75142,131.9954,0.5946227,0.9898543,5.501915
92.80129,124.1122,0.719127,0.9898543,5.495456
92.85179,119.1534,0.7805105,0.9898543,5.501915
92.90105,114.7032,0.8135184,0.9896896,5.501915
92.95158,113.8132,0.8291539,0.9898543,5.501915
93.00081,113.1774,0.836103,0.9896896,5.501915
93.05143,107.4557,0.8604247,0.9898543,5.501915
93.10248,102.3698,0.8754809,0.9898543,5.501915
93.1507,98.04675,0.8737438,0.9896896,5.495456
93.20118,97.53816,0.8743228,0.9898543,5.501915
93.25123,97.53816,0.8864838,0.9898543,5.501915
93.30132,133.0126,0.89517,0.9898543,5.501915
93.35226,130.8511,0.8928536,0.9898543,5.501915
93.40192,120.9335,0.894591,0.9896896,5.501915
93.45159,113.0503,0.8928536,0.9898543,5.495456
93.50154,111.6517,0.8708483,0.9898543,5.495456
93.55074,112.6688,0.836103,0.9896896,5.495456
93.60198,111.6517,0.8025157,0.9898543,5.495456
93.65148,111.0159,0.7446069,0.9898543,5.495456
93.70129,102.2427,0.6977006,0.9898543,5.495456
93.75155,96.01237,0.5581402,0.9896896,5.501915
93.80093,95.50377,0.5297647,0.9898543,5.501915
93.85217,121.1878,0.5077594,0.9900191,5.495456
93.90154,132.1226,0.5002313,0.9898543,5.495456
93.95157,130.3425,0.4874913,0.9896896,5.495456
94.00117,121.4421,0.4915448,0.9898543,5.495456
94.05129,113.3046,0.4979149,0.9898543,5.495456
94.10182,112.1602,0.5025475,0.9900191,5.495456
94.15143,111.906,0.5019684,0.9896896,5.495456
94.20092,110.6345,0.4955984,0.9896896,5.495456
94.25079,109.1087,0.4417431,0.9898543,5.495456
94.30079,99.69969,0.4295823,0.9898543,5.495456
94.35268,94.74089,0.3056573,0.9896896,5.495456
94.40082,94.74089,0.2790191,0.9898543,5.495456
94.45179,105.4214,0.2546973,0.9898543,5.488997
94.50117,134.5384,0.246011,0.9898543,5.495456
94.55142,135.6828,0.2419574,0.9898543,5.495456
94.60254,130.5968,0.2344293,0.9900191,5.495456
94.65118,121.9507,0.2350083,0.9898543,5.488997
94.70119,117.5005,0.2245847,0.9898543,5.488997
94.75121,115.7204,0.1950512,0.9896896,5.495456
94.80104,115.339,0.1539359,0.9898543,5.495456
94.85279,114.4489,0.1105041,0.9898543,5.495456
94.90179,103.2598,0.1041341,0.9900191,5.495456
94.95081,98.6825,0.03058977,0.9896896,5.495456
95.00153,94.48659,-0.02616095,0.9898543,5.488997
95.05096,106.6929,-0.06148543,0.9898543,5.488997
95.10241,129.7068,-0.1095498,0.9898543,5.488997
95.15153,136.3185,-0.1819359,0.9898543,5.488997
95.20088,135.047,-0.2496894,0.9999016,5.488997
95.25159,129.8339,-0.2508475,0.9999016,5.488997
95.30168,118.0091,-0.2456357,0.999737,5.488997
95.35269,116.3562,-0.2687993,0.9999016,5.488997
95.40186,116.1019,-0.3052819,0.999737,5.495456
95.45093,114.9575,-0.3243918,0.999737,5.488997
95.50156,105.6757,-0.3411855,0.9999016,5.495456
95.55079,100.2083,-0.3272873,0.9999016,5.488997
95.60228,94.35944,-0.3788263,0.9999016,5.488997
95.65115,90.29069,-0.3799845,0.999737,5.488997
95.70129,98.30104,-0.3788263,0.999737,5.488997
95.75129,133.3941,-0.3666654,0.999737,5.488997
95.80156,136.8271,-0.3533463,0.9999016,5.488997
95.85193,134.157,-0.2855929,1.000066,5.488997
95.90146,121.9507,-0.1593515,0.999737,5.488997
95.95081,116.3562,-0.06264354,0.999737,5.488997
96.00118,115.7204,0.002214466,0.999737,5.488997
96.051,114.5761,0.06996784,0.999737,5.488997
96.10253,105.0399,0.1539359,0.9999016,5.488997
96.15118,100.5897,0.2158984,0.999737,5.488997
96.20118,95.88522,0.2830727,0.9999016,5.488997
96.25079,94.35944,0.2853891,0.999737,5.488997
96.30115,90.29069,0.3033409,0.9999016,5.488997
96.35216,93.978,0.3803598,0.9999016,5.488997
96.40182,131.4868,0.4486921,0.999737,5.488997
96.4514,134.6656,0.5141294,0.9999016,5.488997
96.50091,128.3081,0.5633519,0.9999016,5.482538
96.55183,117.8819,0.7133361,0.999737,5.488997
96.60278,114.0675,0.7718241,0.999737,5.488997
96.65134,112.5417,0.8100439,0.9999016,5.482538
96.70122,112.0331,0.8308911,0.999737,5.488997
96.75155,111.6517,0.8500011,0.999737,5.482538
96.8017,100.5897,0.8743228,0.9999016,5.488997
96.85275,94.74089,0.8876419,0.9999016,5.488997
96.90147,91.05358,0.8853255,0.9999016,5.482538
96.95196,90.67213,0.8859046,0.999737,5.488997
97.00126,97.53816,0.8934329,0.999737,5.488997
97.05187,131.7411,0.8998027,0.9999016,5.482538
97.10271,134.5384,0.9113846,0.999737,5.482538
97.15092,122.7136,0.9368644,0.999737,5.482538
97.20084,111.0159,0.9438135,0.999737,5.482538
97.25191,110.253,0.946709,0.9999016,5.482538
97.30142,109.1087,0.9443927,0.999737,5.482538
97.35249,109.363,0.9345482,0.9999016,5.482538
97.40083,103.7684,0.9102265,0.999737,5.482538
97.45171,99.82683,0.8679528,0.9999016,5.482538
97.50143,93.2151,0.7741405,0.9999016,5.482538
97.55147,90.54498,0.7295506,0.999737,5.482538
97.60229,113.0503,0.700596,0.999737,5.482538
97.65199,133.3941,0.6270518,0.9999016,5.482538
97.70174,134.5384,0.5668265,0.9999016,5.482538
97.75287,128.3081,0.5430838,0.9999016,5.482538
97.80141,114.3218,0.5413466,0.999737,5.482538
97.85225,109.7444,0.5158666,0.9999016,5.482538
97.90142,111.3974,0.511813,0.9999016,5.482538
97.95142,111.0159,0.4909658,0.9999016,5.476079
98.00217,109.8716,0.4457969,0.9999016,5.482538
98.05134,97.66531,0.4180006,0.9999016,5.482538
98.10217,94.86804,0.3566172,0.999737,5.482538
98.15158,94.99519,0.2987082,0.999737,5.482538
98.20154,98.80965,0.2790191,0.999737,5.482538
98.25277,124.6208,0.2709118,0.999737,5.476079
98.3009,140.5144,0.2674373,0.9999016,5.482538
98.35183,135.6828,0.25933,0.9999016,5.482538
98.40128,127.2909,0.2581719,0.999737,5.482538
98.45083,118.772,0.252381,0.999737,5.476079
98.50241,116.8647,0.2471692,0.9999016,5.482538
98.55099,115.9747,0.2338501,0.999737,5.476079
98.60179,115.339,0.2211102,0.999737,5.482538
98.6515,108.3458,0.2077911,0.9999016,5.482538
98.70094,101.8612,0.2054748,0.9999016,5.476079
98.75295,95.12233,0.1168741,0.9999016,5.482538
98.80167,95.63092,0.09718504,0.999737,5.476079
98.85207,118.3905,0.06417699,0.9999016,5.476079
98.90182,139.6244,0.04159253,0.999737,5.476079
98.95141,139.7515,0.003372572,0.999737,5.476079
99.00277,134.7927,-0.02384463,0.9999016,5.482538
99.05097,125.638,-0.02442368,0.9999016,5.476079
99.10285,120.0435,-0.0371636,0.999737,5.476079
99.15137,118.5177,-0.06380175,0.9999016,5.476079
99.20107,117.3734,-0.09738896,0.9995722,5.476079
99.25286,115.2118,-0.1715124,0.9999016,5.476079
99.30144,111.906,-0.2074159,0.999737,5.476079
99.35207,103.2598,-0.253743,0.999737,5.476079
99.40142,98.42819,-0.3348156,0.999737,5.476079
99.4518,96.52097,-0.3243918,0.9999016,5.476079
99.50207,128.3081,-0.3116519,0.9898543,5.469619
99.55182,140.7687,-0.2155232,0.9898543,5.476079
99.60257,138.3529,-0.06553901,0.9898543,5.476079
99.65083,135.6828,0.04217158,0.9896896,5.476079
99.70182,125.638,0.1979466,0.9898543,5.476079
99.75243,120.8064,0.2859682,0.9898543,5.476079
99.80117,118.8991,0.3710943,0.9896896,5.469619
99.85269,116.8647,0.4272659,0.9898543,5.469619
99.90103,115.4661,0.4672231,0.9898543,5.476079
99.95081,107.2015,0.505443,0.9896896,5.469619
100.002,101.0983,0.5320811,0.9898543,5.476079
100.0518,95.88522,0.5454002,0.9900191,5.469619
100.1024,97.15671,0.6467407,0.9898543,5.476079
100.1509,127.5452,0.7278132,0.9898543,5.469619
100.2018,138.8615,0.7955667,0.9896896,5.476079
100.2524,137.3357,0.8268375,0.9900191,5.469619
100.3019,131.8683,0.8592666,0.9900191,5.469619
100.3529,122.8407,0.8934329,0.9898543,5.469619
100.4017,119.2806,0.9206501,0.9898543,5.469619
100.4512,117.6276,0.9397599,0.9898543,5.469619
100.5027,117.3734,0.9455509,0.9900191,5.469619
100.5518,109.4901,0.947288,0.9898543,5.469619
100.6029,104.4042,0.9507625,0.9898543,5.469619
100.6509,101.3526,0.9507625,0.9898543,5.469619
100.7019,95.24948,0.9501835,0.9898543,5.469619
100.7524,103.387,0.9507625,0.9898543,5.469619
100.8016,129.7068,0.9519209,0.9896896,5.469619
100.8527,135.937,0.954237,0.9898543,5.469619
100.9012,133.1398,0.9577116,0.9900191,5.469619
100.9513,122.4593,0.9646606,0.9898543,5.469619
101.0028,116.7376,0.965819,0.9898543,5.469619
101.0517,116.4833,0.965819,0.9900191,5.463161
101.1021,116.3562,0.9565535,0.9898543,5.469619
101.1511,114.5761,0.9524999,0.9896896,5.469619
101.201,106.4386,0.947288,0.9896896,5.469619
101.2528,105.4214,0.8806928,0.9898543,5.463161
101.301,98.1739,0.8233629,0.9898543,5.463161
101.3528,96.77527,0.8077277,0.9898543,5.469619
101.4011,126.7823,0.7637169,0.9898543,5.463161
101.4515,135.937,0.7359206,0.9900191,5.463161
101.5022,133.5212,0.7115987,0.9898543,5.463161
101.5514,125.5108,0.7023334,0.9896896,5.463161
101.6029,117.119,0.6340008,0.9896896,5.463161
101.6509,115.9747,0.5610355,0.9900191,5.469619
101.7018,115.7204,0.5454002,0.9900191,5.463161
101.753,114.4489,0.5083385,0.9898543,5.463161
101.8017,113.686,0.4556414,0.9896896,5.469619
101.8523,104.4042,0.4394269,0.9898543,5.463161
101.9018,100.4626,0.3369281,0.9898543,5.463161
101.9514,97.79247,0.3016035,0.9898543,5.463161
102.0022,114.1946,0.2697536,0.9898543,5.463161
102.0518,137.59,0.2541182,0.9898543,5.463161
102.1028,138.3529,0.219952,0.9898543,5.463161
102.1514,134.157,0.162043,0.9898543,5.463161
102.2013,126.528,0.1510404,0.9898543,5.463161
102.2529,125.5108,0.1325095,0.9898543,5.463161
102.3011,122.7136,0.1064505,0.9898543,5.456701
102.352,120.0435,0.06823057,0.9896896,5.463161
102.4015,118.772,0.02016618,0.9898543,5.456701
102.4515,107.3286,-0.01052556,0.9898543,5.463161
102.5025,105.0399,-0.03658454,0.9898543,5.463161
102.5512,102.6241,-0.1211315,0.9896896,5.456701
102.6021,98.6825,-0.1703541,0.9898543,5.456701
102.6509,116.3562,-0.2560593,0.9898543,5.463161
102.7009,136.4456,-0.2954374,0.9898543,5.456701
102.7529,138.7343,-0.3336574,0.9898543,5.456701
102.8009,135.6828,-0.3336574,0.9898543,5.456701
102.8519,128.5624,-0.3296036,0.9898543,5.456701
102.9009,125.3837,-0.3307619,0.9898543,5.456701
102.9519,123.095,-0.3319201,0.9898543,5.456701
103.0024,122.0779,-0.3377109,0.9898543,5.456701
103.0512,119.5349,-0.3556628,0.9898543,5.456701
103.102,110.1259,-0.3684027,0.9898543,5.456701
103.1513,106.6929,-0.350451,0.9896896,5.456701
103.2018,102.497,-0.3458182,0.9896896,5.456701
103.2523,102.1155,-0.3475555,0.9900191,5.456701
103.3009,106.3114,-0.3261291,0.9898543,5.456701
103.3526,128.9439,-0.2821184,0.9898543,5.456701
103.4017,139.2429,-0.1645633,0.9898543,5.456701
103.4515,138.0986,-0.07712082,0.9898543,5.456701
103.5019,134.157,0.0109008,0.9898543,5.450242
103.5519,127.5452,0.1018178,0.9896896,5.456701
103.6026,123.4765,0.2031584,0.9896896,5.456701
103.652,120.6792,0.2628046,0.9898543,5.456701
103.7014,119.5349,0.3351907,0.9898543,5.456701
103.7522,113.8132,0.4058397,0.9900191,5.456701
103.8019,108.9815,0.4440595,0.9898543,5.450242
103.852,104.0227,0.5210785,0.9898543,5.450242
103.9018,100.2083,0.5297647,0.9898543,5.450242
103.9509,95.24948,0.5315021,0.9898543,5.450242
104.0028,102.8784,0.5517702,0.9896896,5.450242
104.0518,132.2497,0.6629552,0.9898543,5.450242
104.1022,136.3185,0.7173896,0.9900191,5.450242
104.1519,133.3941,0.7608214,0.9898543,5.450242
104.2017,126.528,0.8088858,0.9898543,5.450242
104.2522,120.4249,0.8274165,0.9898543,5.450242
104.3017,117.119,0.842473,0.9898543,5.450242
104.3524,116.3562,0.8708483,0.9900191,5.450242
104.4009,114.5761,0.8772183,0.9896896,5.450242
104.4517,105.6757,0.8859046,0.9898543,5.450242
104.5019,102.1155,0.9003819,0.9898543,5.450242
104.5511,99.95398,0.90791,0.9896896,5.450242
104.6023,96.01237,0.9044355,0.9898543,5.450242
104.6509,95.63092,0.9044355,0.9900191,5.450242
104.7019,103.5141,0.9061727,0.9898543,5.450242
104.7524,132.8855,0.8998027,0.9898543,5.456701
104.8017,133.3941,0.8679528,0.9896896,5.450242
104.8529,125.3837,0.843052,0.9896896,5.450242
104.9011,117.2462,0.8349449,0.9898543,5.450242
104.9519,114.9575,0.7973039,0.9898543,5.456701
105.0019,113.3046,0.7492394,0.9900191,5.450242
105.0517,112.0331,0.7197061,0.9900191,5.450242
105.1019,109.7444,0.6253144,0.9898543,5.450242
105.1514,99.44539,0.5465583,0.9896896,5.450242
105.2014,97.66531,0.5170247,0.9896896,5.450242
105.2527,95.63092,0.453325,0.9898543,5.450242
105.3009,92.96081,0.4243704,0.9896896,5.443783
105.3524,114.5761,0.4064187,0.9896896,5.450242
105.402,133.0126,0.3971532,0.9898543,5.450242
105.4519,132.6312,0.3849925,0.9898543,5.443783
105.5019,124.748,0.3844134,0.9898543,5.450242
105.5516,118.6448,0.3641453,0.9898543,5.450242
105.6024,116.1019,0.3160809,0.9896896,5.450242
105.652,114.0675,0.3039199,0.9898543,5.450242
105.7009,112.5417,0.2819146,0.9898543,5.443783
105.7524,102.8784,0.2616465,0.9898543,5.450242
105.8019,98.6825,0.2500647,0.9896896,5.450242
105.8527,94.74089,0.2130029,0.9898543,5.450242
105.9014,92.83366,0.1220859,0.9898543,5.450242
105.9519,95.24948,0.08965693,0.9898543,5.450242
106.0022,116.1019,0.07344237,0.9898543,5.450242
106.0519,134.6656,0.0601234,0.9900191,5.450242
106.1029,132.6312,0.04217158,0.9900191,5.450242
106.1519,125.7652,0.03522252,0.9898543,5.443783
106.2019,117.6276,0.03406431,0.9896896,5.443783
106.2519,116.8647,0.02653619,0.9898543,5.450242
106.3017,114.0675,0.01032164,0.9898543,5.443783
106.3523,114.0675,-0.01689546,0.9896896,5.450242
106.4017,102.8784,-0.06553901,0.9896896,5.450242
106.4512,99.82683,-0.09391443,0.9898543,5.450242
106.5024,97.28386,-0.1390833,0.9898543,5.450242
106.551,93.46941,-0.2485312,0.9896896,5.450242
106.6021,91.81647,-0.2769066,0.9898543,5.443783
106.652,110.253,-0.2647457,0.9898543,5.450242
106.7016,139.2429,-0.2381076,0.9898543,5.450242
106.7531,139.7515,-0.1940968,0.9898543,5.450242
106.8015,133.7755,-0.1454533,0.9898543,5.443783
106.8523,128.0538,-0.05858995,0.9900191,5.450242
106.902,121.1878,-0.0215282,0.9898543,5.450242
106.9511,119.662,0.01379617,0.9898543,5.450242
107.0022,118.1362,0.05838614,0.9896896,5.450242
107.0518,114.8304,0.1151369,0.9900191,5.450242
107.1029,98.9368,0.1979466,0.9898543,5.450242
107.1522,93.2151,0.2413783,0.9898543,5.450242
107.202,89.78209,0.2431156,0.9898543,5.450242
107.253,90.29069,0.2784401,0.9896896,5.450242
107.3012,106.82,0.3097109,0.9896896,5.443783
107.3529,138.2257,0.3994696,0.9898543,5.450242
107.4013,134.5384,0.4423223,0.9898543,5.450242
107.4521,127.4181,0.5233947,0.9898543,5.450242
107.503,118.5177,0.5616148,0.9898543,5.450242
107.5513,113.8132,0.680907,0.9898543,5.450242
107.602,113.4317,0.7393951,0.9898543,5.450242
107.6512,112.2874,0.7787731,0.9900191,5.450242
107.701,112.1602,0.7938293,0.9896896,5.450242
107.7526,98.6825,0.8129393,0.9898543,5.450242
107.8021,92.7065,0.8233629,0.9898543,5.456701
107.852,87.87486,0.8187303,0.9898543,5.450242
107.9015,95.63092,0.8279956,0.9898543,5.450242
107.9516,123.2222,0.8407356,0.9896896,5.450242
108.003,134.9198,0.8638992,0.9898543,5.450242
108.0517,132.2497,0.8864838,0.9898543,5.450242
108.1027,120.0435,0.9142801,0.9898543,5.450242
108.1513,109.8716,0.9345482,0.9896896,5.456701
108.2014,106.82,0.9426554,0.9896896,5.450242
108.2525,107.2015,0.9414973,0.9898543,5.456701
108.3016,107.9643,0.9345482,0.9896896,5.456701
108.3529,108.0915,0.9142801,0.9896896,5.450242
108.4019,94.48659,0.8604247,0.9898543,5.450242
108.4522,87.74771,0.8059903,0.9898543,5.456701
108.5022,89.14634,0.7614005,0.9798071,5.450242
108.5517,118.0091,0.7220223,0.9798071,5.450242
108.6027,132.2497,0.7104406,0.9798071,5.450242
108.6513,129.9611,0.5923065,0.9798071,5.456701
108.7014,121.315,0.5564029,0.9799718,5.450242
108.7524,108.2186,0.5199202,0.9798071,5.450242
108.8014,106.3114,0.5037058,0.9796425,5.456701
108.8522,109.1087,0.4614322,0.9798071,5.456701
108.901,109.1087,0.4162633,0.9798071,5.456701
108.952,103.7684,0.3687779,0.9798071,5.456701
109.0026,94.48659,0.2923382,0.9798071,5.456701
109.0519,91.05358,0.2570137,0.9799718,5.456701
109.102,92.07076,0.2170565,0.9798071,5.450242
109.1513,122.9679,0.1718876,0.9796425,5.456701
109.201,139.7515,0.1406168,0.9798071,5.450242
109.2522,140.7687,0.1116623,0.9798071,5.456701
109.301,125.5108,0.1191904,0.9798071,5.456701
109.3531,118.5177,0.1145577,0.9798071,5.456701
109.401,116.1019,0.0989223,0.9798071,5.456701
109.4512,115.4661,0.06591425,0.9799718,5.456701
109.5024,114.5761,0.02885251,0.9799718,5.456701
109.5513,112.6688,0.01842891,0.9798071,5.456701
109.602,101.0983,-0.05221994,0.9798071,5.456701
109.652,95.63092,-0.1141825,0.9799718,5.456701
109.7018,112.6688,-0.1535605,0.9799718,5.450242
109.7529,133.9027,-0.2155232,0.9798071,5.456701
109.8014,141.6587,-0.2896465,0.9798071,5.456701
109.8525,139.6244,-0.3145474,0.9798071,5.456701
109.9013,131.1054,-0.3191801,0.9798071,5.456701
109.9514,125.638,-0.3093356,0.9798071,5.456701
110.0026,123.9851,-0.3075984,0.9798071,5.456701
110.0521,121.6964,-0.3110729,0.9798071,5.456701
110.1026,120.0435,-0.3261291,0.9799718,5.456701
110.1514,111.0159,-0.3151265,0.9798071,5.456701
110.2012,104.5313,-0.3052819,0.9798071,5.456701
110.2519,100.5897,-0.2983329,0.9799718,5.456701
110.3016,103.2598,-0.2438985,0.9799718,5.456701
110.3529,134.9198,-0.162826,0.9798071,5.456701
110.402,142.9302,-0.08754442,0.9798071,5.456701
110.4518,139.6244,-0.01747462,0.9799718,5.456701
110.5028,133.5212,0.06649331,0.9799718,5.450242
110.5516,125.5108,0.1637803,0.9798071,5.456701
110.602,121.8235,0.2355874,0.9798071,5.456701
110.6514,119.2806,0.265121,0.9798071,5.450242
110.7021,117.2462,0.3027618,0.9798071,5.456701
110.753,107.3286,0.382097,0.9798071,5.456701
110.8016,101.4798,0.4394269,0.9798071,5.456701
110.8526,97.9196,0.4515876,0.9798071,5.456701
110.9011,95.75809,0.5089175,0.9796425,5.456701
110.9521,119.662,0.5482957,0.9798071,5.456701
111.0024,138.8615,0.642108,0.9796425,5.456701
111.0512,137.7171,0.7087034,0.9798071,5.456701
111.1021,131.4868,0.764875,0.9799718,5.456701
111.1516,124.2394,0.8059903,0.9796425,5.450242
111.2014,120.1706,0.8320494,0.9798071,5.456701
111.252,118.3905,0.8407356,0.9799718,5.450242
111.3013,119.0263,0.8476847,0.9798071,5.456701
111.3522,113.686,0.8662156,0.9798071,5.450242
111.4019,107.9643,0.888221,0.9798071,5.456701
111.4516,104.1499,0.8870628,0.9799718,5.450242
111.5027,100.3354,0.8853255,0.9798071,5.450242
111.5515,110.253,0.8916955,0.9798071,5.456701
111.6023,135.3013,0.8830093,0.9798071,5.450242
111.6517,138.0986,0.8540547,0.9798071,5.450242
111.7021,131.8683,0.8453684,0.9798071,5.450242
111.7527,121.315,0.8384194,0.9798071,5.450242
111.8019,119.2806,0.8355239,0.9798071,5.456701
111.8531,117.6276,0.8204675,0.9799718,5.450242
111.9019,116.8647,0.7625585,0.9798071,5.450242
111.9517,115.9747,0.6971215,0.9796425,5.450242
112.0024,108.3458,0.6143118,0.9798071,5.456701
112.0519,102.6241,0.4973358,0.9799718,5.450242
112.1025,101.3526,0.4817003,0.9798071,5.456701
112.1521,120.6792,0.441164,0.9796425,5.450242
112.2019,136.5728,0.4330569,0.9798071,5.450242
112.2525,139.7515,0.4145259,0.9799718,5.456701
112.3021,134.6656,0.3954161,0.9798071,5.450242
112.352,125.5108,0.3786224,0.9798071,5.450242
112.4019,121.315,0.3218716,0.9798071,5.456701
112.4515,120.9335,0.3166599,0.9798071,5.450242
112.5027,118.1362,0.2819146,0.9798071,5.450242
112.5518,116.4833,0.2535392,0.9798071,5.450242
112.6026,108.0915,0.2170565,0.9798071,5.456701
112.652,104.1499,0.1527777,0.9799718,5.450242
112.7015,101.0983,0.06243972,0.9798071,5.450242
112.7527,99.69969,0.04159253,0.9799718,5.450242
112.8012,121.6964,0.03348525,0.9798071,5.450242
112.8526,138.48,0.009163531,0.9898543,5.450242
112.9014,139.3701,-0.01631641,0.9898543,5.450242
112.9514,135.4285,-0.04179634,0.9898543,5.450242
113.0024,128.0538,-0.04411266,0.9896896,5.450242
113.0519,125.1294,-0.0643808,0.9898543,5.450242
113.1032,122.8407,-0.0811744,0.9898543,5.450242
113.1516,121.5692,-0.1251852,0.9898543,5.450242
113.2015,118.3905,-0.2218931,0.9896896,5.450242
113.2524,107.4557,-0.2815393,0.9900191,5.450242
113.3011,103.387,-0.2942793,0.9898543,5.450242
113.3532,101.2255,-0.3655072,0.9898543,5.450242
113.4016,97.66531,-0.3811427,0.9896896,5.450242
113.4516,114.3218,-0.3875126,0.9898543,5.450242
113.5026,138.6072,-0.4141507,0.9798071,5.443783
113.5514,139.6244,-0.4315234,0.9798071,5.450242
113.6022,137.2085,-0.4378934,0.9796425,5.450242
113.6514,131.2325,-0.4077807,0.9798071,5.450242
113.7011,126.0195,-0.3794054,0.9798071,5.443783
113.7524,123.2222,-0.3226546,0.9798071,5.443783
113.8019,121.6964,-0.3087565,0.9798071,5.450242
113.8524,119.1534,-0.2809602,0.9798071,5.450242
113.9022,106.3114,-0.1796196,0.9799718,5.450242
113.9521,103.2598,-0.06380175,0.9798071,5.443783
114.0029,98.80965,-0.05164089,0.9798071,5.443783
114.0512,95.75809,0.006268051,0.9799718,5.450242
114.1022,103.387,0.05896519,0.9798071,5.450242
114.1516,134.157,0.1730458,0.9798071,5.443783
114.2016,138.48,0.226901,0.9798071,5.443783
114.2523,135.3013,0.2691746,0.9798071,5.443783
114.3022,128.3081,0.3589334,0.9798071,5.443783
114.3521,121.1878,0.4290033,0.9798071,5.450242
114.4014,119.2806,0.5042849,0.9798071,5.443783
114.4521,118.0091,0.5407674,0.9798071,5.443783
114.503,113.1774,0.5604565,0.9798071,5.443783
114.5518,103.2598,0.6148908,0.9798071,5.443783
114.6025,98.30104,0.706387,0.9796425,5.443783
114.6518,96.90242,0.7121779,0.9799718,5.443783
114.7012,92.57936,0.712757,0.9798071,5.443783
114.7529,94.99519,0.7260761,0.9798071,5.443783
114.8014,126.0195,0.777036,0.9796425,5.443783
114.8521,132.2497,0.8036739,0.9798071,5.443783
114.9013,129.9611,0.8169929,0.9798071,5.443783
114.952,120.8064,0.8407356,0.9798071,5.443783
115.0028,117.5005,0.8650573,0.9798071,5.443783
115.0517,115.4661,0.8864838,0.9799718,5.443783
115.1031,113.0503,0.8963282,0.9798071,5.443783
115.1511,111.6517,0.9003819,0.9799718,5.443783
115.202,103.7684,0.900961,0.9798071,5.443783
115.2529,98.9368,0.9026982,0.9798071,5.443783
115.3013,95.24948,0.8940119,0.9799718,5.443783
115.3522,92.07076,0.8615828,0.9798071,5.443783
115.4017,93.34225,0.8332075,0.9798071,5.443783
115.4523,128.0538,0.8181513,0.9799718,5.443783
115.5031,132.8855,0.7955667,0.9798071,5.443783
115.5519,130.5968,0.7735614,0.9798071,5.443783
115.6031,117.5005,0.7469233,0.9796425,5.437324
115.6519,113.5589,0.7202851,0.9798071,5.443783
115.7011,112.9231,0.6791698,0.9798071,5.443783
115.7524,112.4145,0.5691429,0.9798071,5.437324
115.8019,112.1602,0.5361347,0.9798071,5.437324
115.8529,103.2598,0.5187621,0.9898543,5.437324
115.9013,96.52097,0.4643276,0.9898543,5.437324
115.9517,93.2151,0.4133678,0.9898543,5.443783
116.0031,96.01237,0.3664615,0.9898543,5.443783
116.0516,115.5933,0.3432981,0.9900191,5.443783
116.1031,136.4456,0.3259254,0.9896896,5.437324
116.1521,134.7927,0.317818,0.9896896,5.437324
116.2013,126.9095,0.3212926,0.9896896,5.443783
116.2523,119.2806,0.3143435,0.9898543,5.443783
116.3019,116.8647,0.2987082,0.9896896,5.437324
116.3529,115.5933,0.2784401,0.9896896,5.443783
116.4014,115.8476,0.2657,0.9898543,5.437324
116.4516,103.0055,0.2471692,0.9898543,5.437324
116.5025,98.04675,0.2425364,0.9898543,5.437324
116.5513,94.10515,0.1330886,0.9896896,5.437324
116.6027,89.14634,0.08154964,0.9896896,5.437324
116.6514,96.13953,0.04912065,0.9898543,5.437324
116.7018,128.6896,0.03348525,0.9896896,5.437324
116.7521,138.7343,0.003372572,0.9896896,5.437324
116.8019,136.4456,-0.03832181,0.9896896,5.437324
116.8528,124.4937,-0.059169,0.9898543,5.437324
116.9012,117.7548,-0.0800162,0.9898543,5.443783
116.9522,116.4833,-0.1031798,0.9896896,5.437324
117.0029,115.339,-0.1379251,0.9896896,5.437324
117.0513,114.1946,-0.1697751,0.9898543,5.437324
117.103,103.1327,-0.1790405,0.9896896,5.437324
117.1517,97.9196,-0.1373461,0.9896896,5.437324
117.2016,94.2323,-0.1755659,0.9896896,5.443783
117.2527,90.41783,-0.1726706,0.9898543,5.443783
117.3018,95.37663,-0.1657215,0.9898543,5.437324
117.3531,136.1913,-0.1697751,0.9898543,5.437324
117.4021,137.9714,-0.1680378,0.9896896,5.443783
117.4522,132.1226,-0.1512442,0.9898543,5.443783
117.503,122.4593,-0.1130244,0.9896896,5.437324
117.5516,117.3734,-0.08522799,0.9896896,5.437324
117.6024,114.1946,-0.09970528,0.9896896,5.437324
117.6511,113.8132,-0.1107079,0.9898543,5.437324
117.702,112.0331,-0.07364629,0.9898543,5.437324
117.753,99.57254,-0.01457914,0.9898543,5.437324
117.8015,94.10515,0.05085791,0.9898543,5.437324
117.8524,88.89205,0.05954424,0.9896896,5.437324
117.9019,89.5278,0.1110832,0.9898543,5.437324
117.9518,108.6001,0.1863648,0.9898543,5.437324
118.0031,137.3357,0.2628046,0.9898543,5.443783
118.0513,136.3185,0.3710943,0.9898543,5.437324
118.1029,126.0195,0.5147085,0.9896896,5.437324
118.1515,117.2462,0.5500329,0.9898543,5.437324
118.2022,114.1946,0.56451,0.9896896,5.437324
118.2522,113.0503,0.6258935,0.9896896,5.437324
118.3019,112.5417,0.6924888,0.9896896,5.437324
118.3531,107.3286,0.7156525,0.9896896,5.437324
118.4013,99.31824,0.7642959,0.9898543,5.437324
118.4522,94.10515,0.7810895,0.9896896,5.437324
118.5026,89.14634,0.7805105,0.9898543,5.437324
118.5511,96.77527,0.7996203,0.9896896,5.437324
118.6031,130.4697,0.830312,0.9896896,5.437324
118.6511,135.8099,0.8372611,0.9898543,5.443783
118.7019,132.2497,0.8615828,0.9900191,5.437324
118.7523,117.5005,0.8974864,0.9896896,5.437324
118.8019,109.4901,0.9206501,0.9898543,5.437324
118.8527,109.8716,0.9553954,0.9898543,5.437324
118.9023,111.5245,0.9617654,0.9898543,5.437324
118.9517,107.9643,0.9588699,0.9896896,5.437324
119.0023,100.9712,0.9409182,0.9898543,5.437324
119.0515,96.01237,0.8465266,0.9898543,5.437324
119.1028,90.41783,0.7990412,0.9896896,5.437324
119.1511,99.06393,0.7336042,0.9898543,5.437324
119.2018,135.5556,0.680907,0.9896896,5.437324
119.2527,137.7171,0.5841991,0.9900191,5.443783
119.3019,130.9782,0.5529283,0.9896896,5.437324
119.3521,114.3218,0.5581402,0.9896896,5.430864
119.4021,111.6517,0.5471374,0.9896896,5.437324
119.4513,111.906,0.524553,0.9898543,5.437324
119.5021,112.1602,0.5094966,0.9896896,5.437324
119.5518,112.1602,0.453904,0.9896896,5.437324
119.6031,101.8612,0.4371104,0.9898543,5.437324
119.6518,94.10515,0.3265045,0.9900191,5.437324
119.7018,91.81647,0.3027618,0.9898543,5.437324
119.7528,106.82,0.277861,0.9896896,5.430864
119.8011,135.6828,0.2685955,0.9896896,5.437324
119.8522,139.8786,0.2518019,0.9898543,5.437324
119.9016,133.6484,0.2309547,0.9896896,5.437324
119.9521,118.6448,0.2419574,0.9896896,5.430864
120.0029,113.1774,0.2407992,0.9898543,5.437324
120.0514,112.6688,0.2072121,0.9898543,5.430864
120.1032,111.0159,0.161464,0.9898543,5.437324
120.1518,110.6345,0.1012387,0.9898543,5.437324
120.2016,103.0055,0.08039144,0.9896896,5.430864
120.2523,100.2083,0.00858437,0.9898543,5.437324
120.3023,93.72369,-0.007630076,0.9898543,5.430864
120.3531,118.6448,-0.02326547,0.9898543,5.430864
120.4015,138.7343,-0.04990362,0.9898543,5.430864
120.4513,139.4972,-0.09217716,0.9900191,5.430864
120.5023,134.7927,-0.1228688,0.9896896,5.430864
120.5516,125.2566,-0.1164989,0.9898543,5.430864
120.6029,119.2806,-0.1228688,0.9896896,5.430864
120.6514,117.6276,-0.1877268,0.9898543,5.430864
120.7013,115.9747,-0.2716948,0.9898543,5.430864
120.7534,114.9575,-0.3174428,0.9898543,5.430864
120.8016,105.0399,-0.318601,0.9896896,5.430864
120.8524,99.57254,-0.3776681,0.9898543,5.430864
120.9011,99.19109,-0.3730354,0.9896896,5.430864
120.9519,115.8476,-0.3411855,0.9896896,5.430864
121.0023,140.3873,-0.3203383,0.9896896,5.430864
121.0518,141.6587,-0.2682203,0.9896896,5.430864
121.1026,135.1741,-0.1529815,0.9898543,5.430864
121.1513,126.4009,-0.04527088,0.9896896,5.430864
121.2011,120.9335,0.0433298,0.9896896,5.430864
121.2531,120.5521,0.1313513,0.9898543,5.430864
121.3023,119.2806,0.200263,0.9898543,5.430864
121.3534,113.9403,0.25296,0.9898543,5.430864
121.4021,108.9815,0.3126063,0.9896896,5.430864
121.4518,103.7684,0.3317162,0.9898543,5.424405
121.5023,97.41101,0.4081561,0.9898543,5.430864
121.5513,101.2255,0.4735931,0.9898543,5.430864
121.6026,135.8099,0.5465583,0.9896896,5.430864
121.6514,138.0986,0.5691429,0.9898543,5.424405
121.7012,134.5384,0.6907515,0.9896896,5.430864
121.7531,125.638,0.7573469,0.9896896,5.430864
121.8021,120.2978,0.8048322,0.9896896,5.430864
121.8528,119.0263,0.8268375,0.9896896,5.424405
121.9023,117.6276,0.836682,0.9900191,5.424405
121.9513,115.7204,0.842473,0.9896896,5.424405
122.0023,107.71,0.8685319,0.9896896,5.424405
122.0523,99.19109,0.8754809,0.9896896,5.424405
122.1022,95.24948,0.8720064,0.9896896,5.424405
122.1513,107.4557,0.8777974,0.9896896,5.430864
122.2018,132.8855,0.8928536,0.9898543,5.424405
122.2533,136.0642,0.9038565,0.9898543,5.424405
122.3021,131.3597,0.90791,0.9896896,5.424405
122.3526,121.5692,0.9084891,0.9896896,5.430864
122.4018,117.8819,0.90154,0.9896896,5.424405
122.4518,116.229,0.8725857,0.9898543,5.424405
122.5027,115.7204,0.8372611,0.9896896,5.424405
122.5522,113.3046,0.7920922,0.9896896,5.424405
122.6032,103.8956,0.7550305,0.9898543,5.417946
122.6514,100.3354,0.6276308,0.9898543,5.424405
122.7018,99.57254,0.5430838,0.9898543,5.424405
122.753,107.8372,0.5141294,0.9896896,5.424405
122.8018,133.9027,0.4886494,0.9898543,5.424405
122.8523,134.0298,0.453325,0.9898543,5.424405
122.9019,130.724,0.4284242,0.9898543,5.424405
122.9515,120.2978,0.4266869,0.9898543,5.424405
123.0032,115.9747,0.4046815,0.9896896,5.424405
123.0517,115.2118,0.376306,0.9898543,5.424405
123.1022,115.2118,0.3270835,0.9900191,5.417946
123.1517,111.906,0.3004454,0.9896896,5.417946
123.2013,106.0571,0.2819146,0.9896896,5.417946
123.2524,100.5897,0.226901,0.9898543,5.417946
123.3012,98.1739,0.1655176,0.9900191,5.417946
123.3527,101.3526,0.09834325,0.9898543,5.424405
123.402,127.6724,0.08270786,0.9896896,5.417946
123.4519,136.8271,0.05780698,0.9896896,5.417946
123.5031,135.4285,0.03638073,0.9898543,5.417946
123.5517,127.9267,0.03638073,0.9896896,5.424405
123.6028,120.1706,0.03232704,0.9896896,5.417946
123.6514,118.772,0.0120589,0.9898543,5.417946
123.7015,118.8991,-0.01515819,0.9896896,5.417946
123.7524,117.6276,-0.06901354,0.9896896,5.417946
123.8018,109.2358,-0.1060753,0.9896896,5.417946
123.8531,101.6069,-0.2178395,0.9896896,5.417946
123.9019,98.30104,-0.3377109,0.9898543,5.417946
123.9523,101.0983,-0.3602954,0.9898543,5.417946
124.0033,131.3597,-0.3672445,0.9896896,5.417946
124.0516,139.4972,-0.3875126,0.9898543,5.417946
124.1028,137.7171,-0.4014107,0.9898543,5.417946
124.1521,132.504,-0.4014107,0.9898543,5.417946
124.2021,125.5108,-0.383459,0.9898543,5.417946
124.2526,123.4765,-0.3655072,0.9898543,5.417946
124.3014,122.205,-0.3388692,0.9896896,5.417946
124.3526,120.4249,-0.3116519,0.9896896,5.417946
124.4024,112.4145,-0.2884883,0.9896896,5.417946
124.4514,105.2942,-0.1912013,0.9898543,5.417946
124.5026,100.7169,-0.1413997,0.9898543,5.411487
124.5519,96.26666,-0.09854706,0.9896896,5.411487
124.6022,108.8544,-0.03311001,0.9898543,5.411487
124.6519,131.2325,0.01669165,0.9898543,5.417946
124.7019,138.6072,0.07228427,0.9896896,5.411487
124.7532,135.8099,0.1446704,0.9898543,5.417946
