t_sec,abp_mmHg,resp_arbunit,spo2_unitless,scon_muS
0,0.5237532,0.6268752,0.9900191,3.137861
0.0505898,0.3966055,0.7355151,0.9898543,3.137861
0.1014437,0.5237532,0.8073578,0.9898543,3.14432
0.1497675,0.6509008,0.8792006,0.9898543,3.14432
0.2010458,0.6509008,0.9300163,0.9898543,3.15078
0.250532,0.5237532,0.9773276,0.9898543,3.14432
0.3006494,0.5237532,1.01062,0.9896896,3.14432
0.3510146,0.6509008,1.045665,0.9900191,3.14432
0.4006091,0.6509008,1.08772,0.9898543,3.137861
0.4519147,0.5237532,1.10349,0.9900191,3.14432
0.5006387,0.5237532,1.11926,0.9898543,3.14432
0.5500249,0.5237532,1.1105,0.9898543,3.14432
0.6011647,0.3966055,1.115756,0.9900191,3.14432
0.6499358,0.3966055,1.117508,0.9898543,3.14432
0.70127,0.5237532,1.115756,0.9898543,3.14432
0.7508627,0.6509008,1.112252,0.9898543,3.14432
0.8001258,0.3966055,1.112252,0.9900191,3.14432
0.8514132,0.5237532,1.085968,0.9898543,3.14432
0.9001653,0.3966055,1.061436,0.9898543,3.14432
0.9514267,0.5237532,1.045665,0.9898543,3.14432
0.9998109,0.5237532,1.021134,0.9898543,3.137861
1.049942,0.6509008,0.9860884,0.9898543,3.14432
1.101324,0.5237532,0.942282,0.9898543,3.14432
1.150769,0.7780523,0.9037327,0.9896896,3.137861
1.201542,0.6509008,0.8564214,0.9898543,3.137861
1.250456,0.5237532,0.812615,0.9898543,3.137861
1.300457,0.5237532,0.7600472,0.9898543,3.137861
1.351003,0.7780523,0.6251231,0.9898543,3.137861
1.400536,0.5237532,0.4919511,0.9900191,3.137861
1.451664,0.5237532,0.3973291,0.9896896,3.137861
1.500371,0.6509008,0.2746707,0.9898543,3.131402
1.550751,0.3966055,0.1379938,0.9896896,3.137861
1.601284,0.5237532,0.02409678,0.9900191,3.131402
1.649908,0.6509008,-0.02847102,0.9898543,3.131402
1.701145,0.5237532,-0.09856097,0.9898543,3.131402
1.749782,0.6509008,-0.1616423,0.9898543,3.131402
1.799999,0.6509008,-0.2072015,0.9898543,3.131402
1.851299,0.6509008,-0.2142108,0.9898543,3.131402
1.899848,0.5237532,-0.2334851,0.9898543,3.124943
1.950782,0.5237532,-0.2422465,0.9898543,3.124943
2.00102,0.3966055,-0.2457514,0.9900191,3.124943
2.050883,0.5237532,-0.2475036,0.9898543,3.124943
2.101283,0.5237532,-0.2475036,0.9898543,3.124943
2.15009,0.7780523,-0.2439986,0.9898543,3.124943
2.201295,0.6509008,-0.2545122,0.9900191,3.124943
2.249984,0.3966055,-0.2667786,0.9898543,3.124943
2.300448,0.3966055,-0.272035,0.9898543,3.124943
2.351496,0.6509008,-0.3614006,0.9898543,3.118484
2.400108,0.5237532,-0.4314912,0.9900191,3.118484
2.451254,0.6509008,-0.5296175,0.9898543,3.118484
2.499951,0.5237532,-0.554149,0.9898543,3.118484
2.549909,0.6509008,-0.6224874,0.9898543,3.118484
2.601528,0.5237532,-0.6435145,0.9898543,3.118484
2.650125,0.6509008,-0.6470188,0.9898543,3.118484
2.701448,0.3966055,-0.6505238,0.9898543,3.112025
2.750154,0.6509008,-0.6697987,0.9900191,3.112025
2.79982,0.5237532,-0.6645417,0.9898543,3.112025
2.851111,0.5237532,-0.6505238,0.9898543,3.112025
2.900795,0.5237532,-0.6277445,0.9898543,3.112025
2.950817,0.5237532,-0.5839375,0.9898543,3.105566
3.000641,0.3966055,-0.5681674,0.9900191,3.112025
3.050643,0.3966055,-0.5506446,0.9898543,3.105566
3.102005,0.7780523,-0.4963247,0.9898543,3.105566
3.150517,0.7780523,-0.4665362,0.9898543,3.105566
3.200998,0.5237532,-0.4227298,0.9900191,3.105566
3.250536,0.5237532,-0.3684092,0.9799718,3.099106
3.300649,0.5237532,-0.2983193,0.9798071,3.099106
3.351417,0.5237532,-0.2510079,0.9798071,3.099106
3.400152,0.3966055,-0.1704037,0.9801366,3.099106
3.450814,0.5237532,-0.09155237,0.9798071,3.099106
3.500939,0.5237532,0.00482246,0.9798071,3.099106
3.550749,0.6509008,0.1572687,0.9799718,3.092647
3.602029,0.5237532,0.3482656,0.9799718,3.092647
3.650897,0.5237532,0.4393833,0.9798071,3.092647
3.701566,0.5237532,0.5077211,0.9799718,3.092647
3.750994,0.5237532,0.5918296,0.9799718,3.092647
3.800363,0.5237532,0.6934609,0.9799718,3.092647
3.851717,0.5237532,0.7582944,0.9798071,3.086188
3.900421,0.5237532,0.8196236,0.9799718,3.092647
3.951228,0.5237532,0.8862099,0.9799718,3.086188
4.000842,0.5237532,0.9300163,0.9799718,3.086188
4.05002,0.5237532,0.9773276,0.9799718,3.086188
4.102019,0.6509008,1.007116,0.9798071,3.086188
4.150521,0.6509008,1.031648,0.9798071,3.086188
4.20098,0.3966055,1.063188,0.9799718,3.079729
4.249815,0.5237532,1.070197,0.9798071,3.086188
4.300558,0.5237532,1.084215,0.9799718,3.079729
4.351225,0.5237532,1.080711,0.9798071,3.079729
4.400506,0.5237532,1.082463,0.9799718,3.079729
4.451794,0.6509008,1.084215,0.9798071,3.079729
4.500228,0.5237532,1.084215,0.9798071,3.079729
4.550385,0.5237532,1.077206,0.9798071,3.079729
4.600849,0.5237532,1.056179,0.9799718,3.07327
4.650254,0.5237532,1.038657,0.9798071,3.07327
4.70123,0.3966055,1.035152,0.9798071,3.07327
4.751011,0.6509008,1.01062,0.9799718,3.07327
4.800729,0.5237532,0.9685662,0.9801366,3.07327
4.851211,0.5237532,0.942282,0.9798071,3.07327
4.90025,0.5237532,0.9177505,0.9798071,3.06681
4.95139,0.5237532,0.887962,0.9798071,3.06681
5.000728,0.5237532,0.8564214,0.9799718,3.07327
5.050227,0.6509008,0.8161193,0.9799718,3.06681
5.101257,0.5237532,0.73902,0.9798071,3.06681
5.149889,0.5237532,0.6514066,0.9799718,3.06681
5.201711,0.5237532,0.562041,0.9798071,3.06681
5.250062,0.6509008,0.4954554,0.9799718,3.06681
5.29999,0.3966055,0.4323741,0.9798071,3.060351
5.351794,0.6509008,0.3430085,0.9798071,3.060351
5.399838,0.5237532,0.2589,0.9799718,3.060351
5.45206,0.3966055,0.199323,0.9798071,3.060351
5.500804,0.5237532,0.1344895,0.9798071,3.060351
5.55027,0.5237532,0.04161959,0.9799718,3.060351
5.601348,0.3966055,0.02059248,0.9798071,3.060351
5.650807,0.3966055,0.008326764,0.9798071,3.060351
5.70206,0.3966055,-0.01270035,0.9798071,3.060351
5.750533,0.5237532,-0.03022317,0.9798071,3.053892
5.80055,0.5237532,-0.03898457,0.9799718,3.053892
5.851256,0.6509008,-0.06001169,0.9798071,3.053892
5.900779,0.5237532,-0.06526814,0.9798071,3.053892
5.951984,0.5237532,-0.08103881,0.9798071,3.053892
6.0008,0.5237532,-0.1073224,0.9799718,3.047433
6.050281,0.6509008,-0.1195881,0.9798071,3.053892
6.100289,0.5237532,-0.1809173,0.9798071,3.047433
6.150858,0.5237532,-0.2089537,0.9799718,3.053892
6.200138,0.5237532,-0.2790443,0.9798071,3.047433
6.250133,0.5237532,-0.3123371,0.9798071,3.047433
6.300027,0.6509008,-0.3684092,0.9799718,3.047433
6.350056,0.5237532,-0.370162,0.9798071,3.047433
6.401104,0.5237532,-0.385932,0.9799718,3.047433
6.449974,0.5237532,-0.3981977,0.9798071,3.047433
6.499882,0.6509008,-0.4279862,0.9798071,3.040974
6.551051,0.3966055,-0.4209777,0.9798071,3.040974
6.600483,0.3966055,-0.4192248,0.9799718,3.047433
6.651775,0.6509008,-0.4122162,0.9798071,3.040974
6.700967,0.6509008,-0.3981977,0.9798071,3.040974
6.75105,0.5237532,-0.3946934,0.9798071,3.040974
6.799925,0.5237532,-0.389437,0.9799718,3.040974
6.849967,0.5237532,-0.3771706,0.9799718,3.040974
6.90188,0.5237532,-0.3806756,0.9799718,3.040974
6.950505,0.6509008,-0.3806756,0.9798071,3.034515
7.000795,0.7780523,-0.3719141,0.9799718,3.034515
7.050588,0.6509008,-0.4069591,0.9799718,3.040974
7.100513,0.5237532,-0.3876842,0.9798071,3.040974
7.151923,0.6509008,-0.4069591,0.9798071,3.040974
7.200083,0.269454,-0.4262341,0.9798071,3.034515
7.250488,0.5237532,-0.4244819,0.9799718,3.034515
7.300045,0.5237532,-0.3789234,0.9798071,3.028055
7.350752,0.6509008,-0.3175942,0.9799718,3.034515
7.401263,0.6509008,-0.2510079,0.9799718,3.028055
7.450791,0.5237532,-0.1651473,0.9799718,3.028055
7.500494,0.3966055,-0.04424103,0.9798071,3.028055
7.550305,0.6509008,0.07316027,0.9798071,3.028055
7.600438,0.5237532,0.2606522,0.9798071,3.028055
7.65134,0.5237532,0.4428876,0.9798071,3.034515
7.699918,0.5237532,0.541014,0.9798071,3.028055
7.751046,0.6509008,0.6689295,0.9798071,3.028055
7.799921,0.3966055,0.7723129,0.9798071,3.028055
7.850417,0.5237532,0.8546692,0.9798071,3.028055
7.901092,0.7780523,0.9317684,0.9799718,3.028055
7.950459,0.5237532,0.9825841,0.9798071,3.021596
8.000387,0.6509008,1.007116,0.9801366,3.021596
8.050357,0.5237532,1.028143,0.9799718,3.028055
8.100791,0.5237532,1.038657,0.9798071,3.028055
8.151973,0.3966055,1.07195,0.9798071,3.021596
8.200624,0.5237532,1.094729,0.9799718,3.021596
8.250284,0.3966055,1.128022,0.9798071,3.021596
8.300286,0.5237532,1.163067,0.9798071,3.028055
8.350641,0.6509008,1.166572,0.9798071,3.021596
8.401167,0.5237532,1.173581,0.9798071,3.021596
8.450698,0.5237532,1.191103,0.9799718,3.021596
8.500131,0.5237532,1.203369,0.9798071,3.021596
8.550173,0.6509008,1.203369,0.9799718,3.021596
8.600972,0.3966055,1.199865,0.9799718,3.015137
8.651599,0.5237532,1.185847,0.9798071,3.021596
8.700288,0.3966055,1.164819,0.9798071,3.021596
8.750362,0.6509008,1.140287,0.9798071,3.015137
8.800714,0.5237532,1.121013,0.9799718,3.015137
8.850615,0.5237532,1.089472,0.9798071,3.021596
8.901317,0.5237532,1.059684,0.9798071,3.015137
8.950036,0.5237532,0.9948498,0.9798071,3.015137
9.000264,0.6509008,0.9352733,0.9799718,3.015137
9.051034,0.6509008,0.8774485,0.9798071,3.015137
9.100966,0.5237532,0.7425244,0.9798071,3.015137
9.151079,0.5237532,0.6706816,0.9799718,3.015137
9.201708,0.5237532,0.6321317,0.9798071,3.015137
9.250104,0.5237532,0.562041,0.9798071,3.015137
9.300905,0.5237532,0.4744283,0.9798071,3.015137
9.35076,0.5237532,0.4323741,0.9798071,3.015137
9.401723,0.5237532,0.3517699,0.9799718,3.008678
9.451257,0.5237532,0.2851842,0.9798071,3.015137
9.500051,0.5237532,0.2098365,0.9798071,3.008678
9.550443,0.5237532,0.1590215,0.9798071,3.015137
9.601032,0.5237532,0.1169667,0.9798071,3.008678
9.650952,0.5237532,0.08717878,0.9799718,3.008678
9.701951,0.5237532,0.03811529,0.9799718,3.008678
9.750256,0.5237532,-0.02321391,0.9798071,3.008678
9.800709,0.5237532,-0.06176384,0.9799718,3.008678
9.850718,0.5237532,-0.1633951,0.9798071,3.008678
9.901716,0.5237532,-0.2089537,0.9798071,3.008678
9.952029,0.5237532,-0.272035,0.9798071,3.008678
10.00056,0.5237532,-0.3298599,0.9799718,3.008678
10.05103,0.6509008,-0.3771706,0.9799718,3.008678
10.10003,0.5237532,-0.385932,0.9798071,3.008678
10.15157,0.5237532,-0.4087113,0.9798071,3.002219
10.20095,0.3966055,-0.4490134,0.9798071,3.002219
10.25007,0.6509008,-0.4630319,0.9799718,3.002219
10.30096,0.6509008,-0.4560226,0.9798071,3.002219
10.35069,0.5237532,-0.4525183,0.9799718,3.002219
10.40196,0.5237532,-0.4332433,0.9798071,3.002219
10.45192,0.5237532,-0.4174727,0.9799718,3.002219
10.50103,0.5237532,-0.405207,0.9798071,3.002219
10.55093,0.6509008,-0.3964456,0.9799718,3.002219
10.60003,0.5237532,-0.3911891,0.9799718,3.002219
10.6519,0.5237532,-0.3911891,0.9799718,3.002219
10.70161,0.5237532,-0.385932,0.9799718,3.002219
10.75027,0.6509008,-0.4157205,0.9799718,3.002219
10.80046,0.5237532,-0.4069591,0.9801366,3.002219
10.85063,0.5237532,-0.4507655,0.9798071,3.002219
10.90126,0.5237532,-0.4963247,0.9799718,3.002219
10.9514,0.5237532,-0.5313697,0.9798071,2.99576
11.00003,0.6509008,-0.5120947,0.9798071,3.002219
11.05,0.5237532,-0.480554,0.9798071,3.002219
11.10006,0.5237532,-0.4279862,0.9796425,2.99576
11.15112,0.5237532,-0.3456299,0.9798071,2.99576
11.20098,0.3966055,-0.2247243,0.9799718,2.99576
11.25085,0.5237532,-0.1265973,0.9799718,2.99576
11.30073,0.5237532,-0.02671822,0.9799718,3.002219
11.35027,0.5237532,0.1082059,0.9798071,3.002219
11.40127,0.5237532,0.3149728,0.9799718,2.99576
11.45096,0.3966055,0.4586577,0.9799718,2.99576
11.50025,0.3966055,0.5567846,0.9798071,2.99576
11.55002,0.5237532,0.6829473,0.9798071,2.99576
11.60083,0.5237532,0.7617993,0.9799718,2.99576
11.6517,0.5237532,0.8231285,0.9799718,2.99576
11.7019,0.5237532,0.8721914,0.9799718,2.99576
11.75027,0.5237532,0.9089891,0.9798071,2.99576
11.80115,0.5237532,0.9405298,0.9798071,2.99576
11.85089,0.5237532,0.9790798,0.9799718,2.99576
11.90125,0.5237532,1.015877,0.9798071,2.9893
11.95214,0.5237532,1.038657,0.9798071,2.99576
12.00061,0.5237532,1.07195,0.9798071,2.99576
12.05063,0.5237532,1.096481,0.9798071,2.99576
12.1002,0.5237532,1.131527,0.9798071,2.99576
12.15146,0.3966055,1.154306,0.9796425,2.99576
12.20198,0.5237532,1.161315,0.9799718,2.99576
12.25047,0.6509008,1.168324,0.9799718,2.99576
12.30005,0.5237532,1.182342,0.9798071,2.9893
12.35101,0.5237532,1.185847,0.9799718,2.9893
12.40197,0.5237532,1.184094,0.9799718,2.9893
12.45152,0.3966055,1.173581,0.9798071,2.9893
12.50092,0.5237532,1.131527,0.9798071,2.9893
12.55095,0.3966055,1.089472,0.9798071,2.9893
12.6007,0.3966055,1.061436,0.9798071,2.9893
12.65185,0.6509008,1.005363,0.9798071,2.9893
12.70124,0.3966055,0.945787,0.9798071,2.9893
12.74998,0.5237532,0.8862099,0.9798071,2.9893
12.80035,0.3966055,0.7775694,0.9799718,2.9893
12.85035,0.5237532,0.6917087,0.9799718,2.9893
12.90147,0.5237532,0.6023431,0.9798071,2.9893
12.9521,0.5237532,0.4814376,0.9798071,2.9893
13.00084,0.3966055,0.4148512,0.9799718,2.9893
13.05062,0.5237532,0.3657884,0.9799718,2.9893
13.10071,0.5237532,0.2518908,0.9798071,2.982841
13.15147,0.5237532,0.109958,0.9798071,2.9893
13.20129,0.269454,0.05739025,0.9799718,2.9893
13.2507,0.5237532,0.00482246,0.9798071,2.982841
13.30093,0.5237532,-0.01795746,0.9798071,2.982841
13.35071,0.5237532,-0.07928666,0.9799718,2.982841
13.40184,0.3966055,-0.1301017,0.9799718,2.982841
13.45126,0.3966055,-0.1511288,0.9799718,2.982841
13.50121,0.3966055,-0.2527601,0.9798071,2.982841
13.55097,0.3966055,-0.3088328,0.9798071,2.982841
13.60074,0.3966055,-0.3981977,0.9798071,2.982841
13.65105,0.3966055,-0.4314912,0.9798071,2.982841
13.70199,0.5237532,-0.5033339,0.9798071,2.982841
13.75098,0.5237532,-0.5068383,0.9798071,2.982841
13.80118,0.5237532,-0.5173518,0.9798071,2.976382
13.85118,0.5237532,-0.5401311,0.9798071,2.976382
13.90126,0.6509008,-0.5716718,0.9798071,2.976382
13.95177,0.5237532,-0.5611582,0.9799718,2.976382
14.00038,0.5237532,-0.559406,0.9799718,2.982841
14.04997,0.6509008,-0.5506446,0.9798071,2.982841
14.10098,0.5237532,-0.5401311,0.9798071,2.976382
14.15199,0.5237532,-0.5313697,0.9798071,2.976382
14.20146,0.5237532,-0.4963247,0.9798071,2.976382
14.25071,0.5237532,-0.4752976,0.9798071,2.976382
14.3003,0.5237532,-0.4700405,0.9799718,2.976382
14.35096,0.6509008,-0.4665362,0.9798071,2.976382
14.40099,0.3966055,-0.4945726,0.9798071,2.976382
14.45213,0.5237532,-0.5173518,0.9798071,2.976382
14.50081,0.5237532,-0.5366268,0.9798071,2.976382
14.54997,0.5237532,-0.5839375,0.9798071,2.969923
14.60092,0.5237532,-0.6960823,0.9799718,2.976382
14.65225,0.5237532,-0.6768073,0.9798071,2.976382
14.70226,0.3966055,-0.6522759,0.9798071,2.976382
14.7505,0.5237532,-0.5856896,0.9799718,2.969923
14.80033,0.5237532,-0.480554,0.9799718,2.976382
14.85021,0.5237532,-0.3333642,0.9799718,2.976382
14.90176,0.3966055,-0.2159629,0.9798071,2.976382
14.95204,0.3966055,-0.09856097,0.9798071,2.976382
15.00013,0.5237532,-0.0004346424,0.9798071,2.976382
15.05025,0.5237532,0.1625258,0.9798071,2.976382
15.10121,0.5237532,0.3535221,0.9798071,2.976382
15.15156,0.5237532,0.4779326,0.9798071,2.976382
15.20146,0.3966055,0.5865731,0.9801366,2.976382
15.25122,0.3966055,0.6899566,0.9898543,2.976382
15.30121,0.5237532,0.7582944,0.9896896,2.976382
15.35047,0.5237532,0.7898357,0.9898543,2.982841
15.40144,0.5237532,0.8476599,0.9898543,2.976382
15.4511,0.6509008,0.8809528,0.9898543,2.982841
15.50095,0.5237532,0.9247598,0.9898543,2.982841
15.55004,0.5237532,0.9580526,0.9898543,2.982841
15.60033,0.5237532,0.9966019,0.9900191,2.982841
15.65111,0.5237532,1.01763,0.9898543,2.982841
15.70194,0.5237532,1.040409,0.9898543,2.982841
15.75093,0.5237532,1.061436,0.9898543,2.9893
15.80111,0.3966055,1.094729,0.9898543,2.9893
15.85025,0.3966055,1.128022,0.9898543,2.9893
15.90137,0.5237532,1.145545,0.9898543,2.982841
15.95192,0.5237532,1.15781,0.9896896,2.9893
16.00057,0.5237532,1.161315,0.9900191,2.99576
16.05084,0.5237532,1.159562,0.9898543,2.9893
16.1001,0.5237532,1.152554,0.9900191,2.99576
16.15217,0.5237532,1.131527,0.9896896,2.99576
16.20152,0.5237532,1.101738,0.9896896,2.9893
16.25092,0.5237532,1.080711,0.9898543,2.99576
16.30058,0.6509008,1.047418,0.9898543,2.99576
16.35008,0.5237532,0.9825841,0.9898543,2.99576
16.40208,0.5237532,0.9212549,0.9898543,2.99576
16.45146,0.5237532,0.8301371,0.9898543,2.99576
16.50095,0.5237532,0.7285065,0.9898543,2.99576
16.55004,0.3966055,0.6496545,0.9898543,2.99576
16.60067,0.3966055,0.5392618,0.9898543,3.002219
16.65197,0.5237532,0.4236127,0.9898543,2.99576
16.70145,0.5237532,0.3622835,0.9898543,2.99576
16.75089,0.5237532,0.2501386,0.9898543,2.99576
16.80118,0.5237532,0.08016952,0.9898543,3.002219
16.85105,0.3966055,-0.01795746,0.9898543,2.99576
16.90193,0.5237532,-0.1213409,0.9898543,3.002219
16.95106,0.5237532,-0.1528816,0.9900191,2.99576
17.00004,0.3966055,-0.1721565,0.9898543,2.99576
17.05032,0.5237532,-0.212458,0.9896896,2.99576
17.10072,0.5237532,-0.2457514,0.9898543,2.99576
17.15168,0.5237532,-0.2790443,0.9896896,2.99576
17.2022,0.5237532,-0.389437,0.9896896,2.99576
17.25096,0.5237532,-0.4472612,0.9898543,2.99576
17.30094,0.5237532,-0.5243611,0.9898543,2.99576
17.35021,0.5237532,-0.5453882,0.9898543,2.99576
17.40208,0.6509008,-0.617231,0.9898543,2.99576
17.45174,0.5237532,-0.6154782,0.9898543,2.99576
17.50105,0.5237532,-0.613726,0.9898543,3.002219
17.55093,0.6509008,-0.6207352,0.9898543,2.99576
17.60057,0.5237532,-0.6242396,0.9898543,2.99576
17.65199,0.6509008,-0.5909467,0.9896896,2.99576
17.70164,0.5237532,-0.5839375,0.9898543,2.99576
17.75022,0.5237532,-0.5751761,0.9896896,2.99576
17.80003,0.5237532,-0.5576539,0.9898543,3.002219
17.85136,0.5237532,-0.5453882,0.9896896,2.99576
17.90122,0.5237532,-0.5085904,0.9898543,2.99576
17.95137,0.6509008,-0.484059,0.9896896,2.99576
18.0005,0.3966055,-0.4752976,0.9900191,2.99576
18.05009,0.5237532,-0.4770497,0.9898543,2.99576
18.10106,0.5237532,-0.4752976,0.9896896,2.99576
18.15203,0.5237532,-0.4928204,0.9898543,2.99576
18.20203,0.5237532,-0.5103425,0.9898543,2.99576
18.25065,0.5237532,-0.538379,0.9898543,2.99576
18.30044,0.5237532,-0.613726,0.9896896,2.9893
18.35044,0.5237532,-0.6838166,0.9896896,2.99576
18.40132,0.3966055,-0.6522759,0.9898543,2.9893
18.45136,0.5237532,-0.6259917,0.9898543,2.99576
18.50085,0.5237532,-0.5646625,0.9896896,2.99576
18.55073,0.5237532,-0.4490134,0.9898543,2.9893
18.60056,0.5237532,-0.2965671,0.9900191,2.9893
18.65143,0.5237532,-0.1791651,0.9898543,2.9893
18.70217,0.5237532,-0.03898457,0.9896896,2.9893
18.75044,0.3966055,0.09068308,0.9898543,2.9893
18.80118,0.5237532,0.3342471,0.9898543,2.9893
18.85005,0.5237532,0.4831897,0.9900191,2.9893
18.90167,0.5237532,0.5970867,0.9896896,2.982841
18.95148,0.5237532,0.73902,0.9898543,2.9893
19.0007,0.3966055,0.8196236,0.9898543,2.9893
19.05086,0.5237532,0.887962,0.9898543,2.9893
19.10114,0.5237532,0.9352733,0.9898543,2.982841
19.15148,0.5237532,0.9738227,0.9898543,2.982841
19.2022,0.6509008,1.005363,0.9898543,2.982841
19.2502,0.5237532,1.028143,0.9898543,2.982841
19.30056,0.6509008,1.04917,0.9898543,2.982841
19.35032,0.6509008,1.08772,0.9898543,2.982841
19.40178,0.5237532,1.10349,0.9898543,2.982841
19.45116,0.5237532,1.112252,0.9898543,2.982841
19.50094,0.6509008,1.133279,0.9896896,2.976382
19.55067,0.5237532,1.161315,0.9898543,2.982841
19.60065,0.5237532,1.18059,0.9898543,2.982841
19.65185,0.6509008,1.194608,0.9898543,2.976382
19.70156,0.5237532,1.210378,0.9896896,2.976382
19.75081,0.5237532,1.217387,0.9898543,2.976382
19.80103,0.5237532,1.220892,0.9898543,2.976382
19.85045,0.3966055,1.222644,0.9898543,2.976382
19.9017,0.6509008,1.19636,0.9896896,2.976382
19.95149,0.5237532,1.159562,0.9898543,2.976382
20.00106,0.5237532,1.121013,0.9898543,2.976382
20.05017,0.6509008,1.089472,0.9898543,2.976382
20.10098,0.5237532,1.054427,0.9896896,2.976382
20.15198,0.5237532,0.9878412,0.9896896,2.969923
20.20164,0.5237532,0.9124935,0.9898543,2.969923
20.25048,0.3966055,0.8564214,0.9900191,2.976382
20.30116,0.6509008,0.7617993,0.9898543,2.969923
20.35066,0.6509008,0.6514066,0.9896896,2.969923
20.40168,0.3966055,0.600591,0.9896896,2.969923
20.4517,0.6509008,0.5112261,0.9896896,2.969923
20.5003,0.5237532,0.4043377,0.9898543,2.969923
20.55007,0.5237532,0.2816793,0.9900191,2.969923
20.60075,0.3966055,0.1309852,0.999737,2.969923
20.65118,0.5237532,0.02234463,0.9999016,2.969923
20.70151,0.5237532,-0.07052525,0.999737,2.969923
20.7502,0.5237532,-0.1406152,0.999737,2.969923
20.80019,0.3966055,-0.1809173,0.9999016,2.963464
20.85085,0.5237532,-0.1931836,0.999737,2.963464
20.9013,0.5237532,-0.2142108,0.999737,2.963464
20.95193,0.5237532,-0.2054494,0.9995722,2.963464
21.00043,0.5237532,-0.2019444,0.9999016,2.963464
21.05012,0.5237532,-0.1879265,0.9999016,2.963464
21.10016,0.5237532,-0.1809173,0.999737,2.963464
21.15142,0.5237532,-0.1336066,0.999737,2.963464
21.20171,0.6509008,-0.04774533,0.999737,2.963464
21.25045,0.3966055,-0.00919605,0.9999016,2.963464
21.30038,0.5237532,0.08542598,0.999737,2.957005
21.35115,0.5237532,0.2256072,0.9999016,2.963464
21.40121,0.5237532,0.3219814,0.9999016,2.957005
21.45166,0.5237532,0.4130991,0.9999016,2.957005
21.50045,0.5237532,0.505969,0.9999016,2.963464
21.55026,0.5237532,0.5743074,0.999737,2.963464
21.60067,0.5237532,0.6216181,0.9999016,2.957005
21.6512,0.5237532,0.6601681,0.999737,2.957005
21.70229,0.5237532,0.679443,0.999737,2.957005
21.75113,0.6509008,0.6724337,0.999737,2.950546
21.80092,0.5237532,0.6233703,0.9999016,2.950546
21.85063,0.6509008,0.6111045,0.9999016,2.950546
21.90167,0.3966055,0.5865731,0.9995722,2.950546
21.95167,0.5237532,0.5392618,0.999737,2.950546
22.00019,0.5237532,0.4551533,0.9999016,2.950546
22.05144,0.6509008,0.4761805,0.9999016,2.950546
22.10018,0.5237532,0.4814376,0.999737,2.957005
22.15017,0.5237532,0.4779326,0.999737,2.957005
22.2008,0.5237532,0.4796854,0.9999016,2.957005
22.25088,0.5237532,0.4761805,0.9999016,2.957005
22.30145,0.5237532,0.4744283,0.999737,2.950546
22.35127,0.5237532,0.4831897,0.9999016,2.950546
22.401,0.5237532,0.4884462,0.9999016,2.950546
22.45094,0.5237532,0.5007125,0.999737,2.950546
22.50118,0.5237532,0.5217397,0.999737,2.950546
22.55202,0.5237532,0.5305004,0.9995722,2.950546
22.60028,0.3966055,0.5480232,1.000066,2.950546
22.65125,0.5237532,0.5462711,0.999737,2.944087
22.70038,0.5237532,0.5199868,0.999737,2.950546
22.75071,0.6509008,0.5287483,0.999737,2.950546
22.8015,0.5237532,0.5287483,0.999737,2.944087
22.85051,0.6509008,0.5392618,0.999737,2.950546
22.90025,0.5237532,0.562041,0.9999016,2.944087
22.95023,0.6509008,0.6181138,0.999737,2.950546
23.00016,0.3966055,0.6408931,0.9999016,2.950546
23.05199,0.3966055,0.6724337,0.999737,2.950546
23.10028,0.5237532,0.679443,0.9999016,2.944087
23.15126,0.6509008,0.698718,0.999737,2.950546
23.2008,0.5237532,0.7109837,0.9999016,2.944087
23.25084,0.5237532,0.7232494,0.999737,2.944087
23.30228,0.5237532,0.7477808,0.9999016,2.944087
23.35064,0.6509008,0.7688079,0.9999016,2.944087
23.40055,0.5237532,0.7688079,0.9999016,2.944087
23.45038,0.6509008,0.7600472,0.9999016,2.944087
23.50116,0.5237532,0.7460287,0.999737,2.944087
23.55235,0.5237532,0.714488,0.999737,2.944087
23.60107,0.5237532,0.6689295,0.9999016,2.944087
23.65025,0.5237532,0.6531588,0.9999016,2.944087
23.70017,0.5237532,0.6146095,0.999737,2.944087
23.75062,0.5237532,0.5427667,0.9999016,2.944087
23.8017,0.5237532,0.4884462,0.999737,2.937627
23.85034,0.5237532,0.4831897,0.999737,2.937627
23.90062,0.5237532,0.490199,0.9999016,2.937627
23.95012,0.5237532,0.5234918,0.9999016,2.937627
24.00016,0.5237532,0.5672982,0.9999016,2.937627
24.05166,0.5237532,0.6040959,0.9999016,2.937627
24.1002,0.5237532,0.6461502,0.999737,2.937627
24.15012,0.5237532,0.6619202,0.9999016,2.937627
24.20128,0.5237532,0.6479024,0.999737,2.937627
24.25116,0.5237532,0.6233703,0.999737,2.937627
24.30223,0.5237532,0.5340053,0.9999016,2.924709
24.3509,0.6509008,0.5094733,0.999737,2.931168
24.40049,0.5237532,0.4621626,0.999737,2.924709
24.45102,0.5237532,0.3973291,0.999737,2.931168
24.5002,0.5237532,0.3535221,0.999737,2.937627
24.55235,0.5237532,0.1888094,0.999737,2.944087
24.60095,0.3966055,0.1257281,0.999737,2.937627
24.65095,0.5237532,0.050381,0.999737,2.937627
24.70083,0.6509008,0.06089456,0.999737,2.944087
24.75035,0.6509008,0.0451239,0.999737,2.937627
24.80174,0.6509008,0.03110603,0.999737,2.937627
24.85119,0.6509008,0.00131751,0.999737,2.937627
24.90019,0.6509008,-0.0144525,0.999737,2.944087
24.9502,0.5237532,-0.01795746,0.999737,2.937627
25.00126,0.5237532,-0.01970961,0.999737,2.937627
25.05125,0.6509008,0.008326764,0.999737,2.937627
25.10023,0.5237532,0.03461034,0.999737,2.944087
25.15119,0.5237532,0.09593954,0.999737,2.937627
25.20103,0.5237532,0.2221029,0.999737,2.931168
25.25082,0.6509008,0.2536436,0.999737,2.931168
25.30207,0.5237532,0.3640356,0.999737,2.931168
25.3512,0.5237532,0.5112261,0.999737,2.937627
25.40112,0.5237532,0.6093524,0.9999016,2.937627
25.45017,0.5237532,0.7232494,0.999737,2.937627
25.5006,0.6509008,0.8161193,0.999737,2.937627
25.55199,0.5237532,0.8914663,0.999737,2.944087
25.60082,0.5237532,0.9405298,0.999737,2.937627
25.65068,0.5237532,0.9983547,0.999737,2.937627
25.70104,0.5237532,1.08772,0.9999016,2.937627
25.7504,0.6509008,1.135031,0.999737,2.937627
25.80166,0.6509008,1.154306,0.999737,2.944087
25.85106,0.5237532,1.175333,0.999737,2.944087
25.90033,0.6509008,1.19636,0.999737,2.937627
25.95094,0.5237532,1.184094,0.9995722,2.937627
26.00081,0.5237532,1.164819,0.999737,2.937627
26.05194,0.5237532,1.131527,0.9999016,2.937627
26.10127,0.5237532,1.098233,0.999737,2.937627
26.151,0.6509008,1.056179,0.9995722,2.937627
26.20041,0.5237532,0.9878412,0.999737,2.944087
26.25048,0.6509008,0.9300163,0.999737,2.937627
26.30162,0.5237532,0.8721914,0.999737,2.937627
26.35125,0.6509008,0.7985964,0.9995722,2.937627
26.40045,0.5237532,0.6251231,0.999737,2.944087
26.45045,0.6509008,0.5322532,0.9999016,2.944087
26.50069,0.6509008,0.4604104,0.9999016,2.944087
26.55231,0.5237532,0.3482656,0.999737,2.937627
26.60037,0.5237532,0.2834321,0.9999016,2.944087
26.65051,0.6509008,0.2045801,0.9999016,2.944087
26.70018,0.5237532,0.1257281,0.999737,2.944087
26.75116,0.5237532,0.06264671,0.999737,2.944087
26.80164,0.6509008,-0.04248888,0.999737,2.944087
26.85067,0.5237532,-0.1914309,0.999737,2.944087
26.90124,0.5237532,-0.2843007,0.999737,2.944087
26.95094,0.5237532,-0.4087113,0.999737,2.950546
27.00093,0.5237532,-0.4490134,0.9999016,2.944087
27.05179,0.5237532,-0.5033339,0.9999016,2.944087
27.1004,0.5237532,-0.5155997,0.9999016,2.937627
27.15104,0.5237532,-0.5261132,0.999737,2.931168
27.20112,0.5237532,-0.5471404,0.9999016,2.931168
27.25087,0.5237532,-0.6768073,0.999737,2.937627
27.30198,0.5237532,-0.6627895,0.999737,2.931168
27.35031,0.6509008,-0.6487716,0.999737,2.931168
27.40113,0.6509008,-0.6224874,0.999737,2.937627
27.45062,0.5237532,-0.5681674,0.999737,2.944087
27.50135,0.6509008,-0.5261132,0.999737,2.944087
27.55161,0.5237532,-0.5068383,0.9999016,2.950546
27.60031,0.5237532,-0.4980769,0.999737,2.950546
27.65031,0.5237532,-0.4910676,0.999737,2.950546
27.70128,0.3966055,-0.5033339,0.9999016,2.957005
27.75039,0.5237532,-0.6119738,0.9999016,2.957005
27.8021,0.5237532,-0.6557803,0.9999016,2.963464
27.85049,0.5237532,-0.6522759,0.999737,2.969923
27.9006,0.6509008,-0.6470188,0.999737,2.976382
27.95044,0.6509008,-0.6400102,0.999737,2.9893
28.00052,0.5237532,-0.6365052,0.999737,2.99576
28.05194,0.3966055,-0.6242396,0.9999016,3.008678
28.10063,0.5237532,-0.6224874,0.999737,3.021596
28.15031,0.5237532,-0.6119738,0.9999016,3.021596
28.20139,0.5237532,-0.6032124,0.999737,3.028055
28.25126,0.5237532,-0.5699196,0.9999016,3.034515
28.30175,0.5237532,-0.5243611,0.999737,3.040974
28.35035,0.5237532,-0.5015811,0.9999016,3.040974
28.40239,0.5237532,-0.4630319,0.9999016,3.060351
28.45113,0.5237532,-0.4367476,0.999737,3.06681
28.50127,0.5237532,-0.3929413,0.9999016,3.079729
28.55149,0.5237532,-0.3929413,0.999737,3.092647
28.60023,0.5237532,-0.4157205,0.9999016,3.099106
28.65238,0.5237532,-0.4244819,0.999737,3.112025
28.70088,0.5237532,-0.4612791,0.999737,3.118484
28.75042,0.5237532,-0.4788019,0.999737,3.124943
28.80142,0.5237532,-0.4928204,0.9999016,3.137861
28.8509,0.6509008,-0.4314912,0.9999016,3.14432
28.90166,0.5237532,-0.3158414,0.999737,3.15078
28.95035,0.6509008,-0.212458,0.999737,3.163698
29.00134,0.5237532,-0.1125795,0.9999016,3.170157
29.05243,0.6509008,0.03110603,0.999737,3.176616
29.10042,0.5237532,0.2221029,0.999737,3.183075
29.15135,0.3966055,0.4376305,0.999737,3.183075
29.20052,0.6509008,0.5637939,0.9999016,3.189535
29.25142,0.5237532,0.698718,0.999737,3.195994
29.30213,0.5237532,0.8108628,0.9999016,3.202453
29.35021,0.5237532,0.907237,0.9999016,3.208912
29.40217,0.6509008,0.9738227,0.999737,3.208912
29.45035,0.5237532,1.021134,0.999737,3.215371
29.50042,0.6509008,1.066693,0.999737,3.22183
29.55162,0.5237532,1.098233,0.999737,3.22829
29.60042,0.5237532,1.122765,1.000066,3.22829
29.6521,0.5237532,1.147297,0.9999016,3.234749
29.70036,0.5237532,1.182342,0.999737,3.241208
29.75069,0.5237532,1.206874,0.999737,3.247667
29.80146,0.5237532,1.231405,0.9999016,3.247667
29.85068,0.5237532,1.233157,0.999737,3.247667
29.90162,0.5237532,1.243671,0.999737,3.254126
29.95067,0.6509008,1.259441,0.999737,3.254126
30.00134,0.5237532,1.278717,0.999737,3.254126
30.05165,0.5237532,1.280469,0.999737,3.254126
30.10135,0.6509008,1.269955,0.999737,3.254126
30.15221,0.5237532,1.252432,0.9999016,3.260585
30.20114,0.5237532,1.220892,0.999737,3.260585
30.25112,0.5237532,1.199865,0.999737,3.260585
30.30237,0.5237532,1.182342,0.999737,3.267045
30.35087,0.6509008,1.149049,0.999737,3.260585
30.40166,0.6509008,1.08772,0.999737,3.260585
30.45064,0.5237532,1.038657,0.999737,3.267045
30.50139,0.5237532,0.9703184,0.999737,3.267045
30.55137,0.5237532,0.8686871,0.999737,3.267045
30.60041,0.5237532,0.7477808,0.999737,3.267045
30.6515,0.5237532,0.6654245,0.9999016,3.267045
30.70024,0.5237532,0.6146095,0.999737,3.267045
30.75045,0.5237532,0.5340053,0.999737,3.267045
30.80212,0.5237532,0.4148512,0.999737,3.267045
30.85073,0.5237532,0.2939456,0.999737,3.260585
30.90199,0.5237532,0.1870573,0.999737,3.260585
30.95124,0.6509008,0.08367383,0.999737,3.267045
31.00134,0.5237532,0.03110603,0.999737,3.260585
31.05183,0.5237532,-0.002186794,0.9999016,3.260585
31.10049,0.5237532,-0.03723177,0.999737,3.267045
31.15148,0.6509008,-0.05125028,0.999737,3.260585
31.20073,0.5237532,-0.08279096,0.999737,3.260585
31.25033,0.6509008,-0.1265973,0.999737,3.260585
31.30183,0.3966055,-0.1511288,0.9999016,3.260585
31.35052,0.5237532,-0.272035,0.9995722,3.260585
31.40221,0.6509008,-0.3316121,0.999737,3.254126
31.451,0.5237532,-0.4279862,0.999737,3.260585
31.50083,0.6509008,-0.4682883,0.999737,3.254126
31.55161,0.5237532,-0.5313697,0.999737,3.254126
31.60084,0.5237532,-0.5471404,0.999737,3.247667
31.65241,0.5237532,-0.5681674,0.9999016,3.247667
31.70099,0.5237532,-0.5891946,0.999737,3.254126
31.75082,0.5237532,-0.5962038,0.9999016,3.247667
31.80203,0.5237532,-0.5646625,0.999737,3.247667
31.85136,0.6509008,-0.5506446,0.9999016,3.247667
31.90124,106.4386,-0.5313697,0.999737,3.241208
31.95116,103.8956,-0.5155997,0.9999016,3.241208
32.00125,99.82683,-0.499829,0.999737,3.234749
32.05236,96.13953,-0.4752976,0.999737,3.234749
32.10028,96.01237,-0.4717926,0.999737,3.234749
32.15236,94.61374,-0.4665362,0.999737,3.234749
32.20084,94.10515,-0.4595269,0.999737,3.22829
32.25077,92.96081,-0.4770497,0.9898543,3.22829
32.30164,90.54498,-0.4682883,0.9898543,3.22183
32.35133,92.32506,-0.5453882,0.9896896,3.22183
32.40213,127.1638,-0.6470188,0.9900191,3.22183
32.45035,137.9714,-0.6750552,0.9898543,3.215371
32.50082,133.9027,-0.6645417,0.9898543,3.208912
32.55224,120.9335,-0.6785595,0.9898543,3.208912
32.60085,113.4317,-0.6803123,0.9896896,3.208912
32.65141,106.0571,-0.5418832,0.9898543,3.202453
32.7014,104.1499,-0.366657,0.9898543,3.202453
32.75063,105.6757,-0.23699,0.9896896,3.195994
32.80159,107.5829,-0.1055702,0.9898543,3.195994
32.85035,103.7684,0.02935388,0.9898543,3.195994
32.9016,100.7169,0.278175,0.9896896,3.195994
32.95049,97.28386,0.4779326,0.9898543,3.189535
33.00137,94.86804,0.5865731,0.9898543,3.189535
33.05188,93.34225,0.7004701,0.9896896,3.183075
33.10073,92.96081,0.7670558,0.9896896,3.183075
33.15171,92.96081,0.7898357,0.9896896,3.183075
33.20125,91.43503,0.8196236,0.9898543,3.176616
33.25026,93.08795,0.8318899,0.9898543,3.170157
33.30178,125.8923,0.8651828,0.9896896,3.170157
33.35049,138.0986,0.8967234,0.9896896,3.170157
33.40208,131.1054,0.9195027,0.9898543,3.170157
33.45135,120.8064,0.9440342,0.9896896,3.163698
33.50123,109.8716,0.9563005,0.9896896,3.163698
33.55228,104.4042,0.966814,0.9898543,3.157239
33.6006,104.4042,1.003611,0.9898543,3.157239
33.65195,106.82,1.068445,0.9896896,3.157239
33.70073,106.82,1.121013,0.9896896,3.15078
33.75127,102.3698,1.1105,0.9896896,3.15078
33.80241,100.2083,0.9177505,0.9898543,3.14432
33.85094,97.66531,0.6566638,0.9898543,3.15078
33.90223,97.15671,0.2711657,0.9896896,3.14432
33.95095,95.37663,-0.1371109,0.9896896,3.14432
34.00055,94.48659,-0.3999505,0.9898543,3.137861
34.05127,93.72369,-0.6259917,0.9898543,3.137861
34.10123,92.19792,-0.7644207,0.9898543,3.131402
34.15235,101.3526,-0.9781963,0.9898543,3.131402
34.20106,134.157,-1.347924,0.9896896,3.124943
34.25061,136.9542,-1.72466,0.9896896,3.124943
34.30236,125.1294,-2.087378,0.9896896,3.124943
34.3511,117.3734,-2.616561,0.9898543,3.124943
34.40206,109.6173,-3.301695,0.9896896,3.118484
34.45048,104.5313,-3.490939,0.9896896,3.118484
34.50139,103.387,-3.357768,0.9898543,3.112025
34.5517,105.1671,-2.513178,0.9896896,3.118484
34.60047,106.4386,-2.20478,0.9898543,3.118484
34.65139,100.2083,-2.132937,0.9896896,3.112025
34.70092,99.19109,-2.146955,0.9896896,3.112025
34.7509,96.13953,-2.902179,0.9896896,3.112025
34.80206,94.2323,-5.665496,0.9898543,3.105566
34.8514,94.61374,-9.50295,0.9896896,3.105566
34.90146,94.99519,-9.755275,0.999737,3.099106
34.95139,94.48659,-9.466151,0.999737,3.105566
35.00082,95.24948,-5.751357,0.9999016,3.105566
35.05235,124.4937,-3.543508,0.9999016,3.105566
35.1007,138.48,-3.285925,0.999737,3.105566
35.15147,130.724,-3.329732,0.999737,3.118484
35.20134,122.5864,-3.769549,0.999737,3.124943
35.25124,115.0847,-3.753779,0.999737,3.124943
35.30139,105.6757,-3.426106,0.999737,3.124943
35.35082,104.7856,-3.26665,0.999737,3.131402
35.40164,107.2015,-3.107194,0.999737,3.14432
35.45082,109.9987,-2.69366,0.999737,3.14432
35.50072,107.5829,-2.024297,0.9999016,3.15078
35.55163,102.3698,-1.456564,0.9999016,3.163698
35.60061,99.06393,-0.8765656,0.999737,3.176616
35.6519,96.26666,-0.6119738,0.999737,3.195994
35.70036,95.75809,-0.554149,0.999737,3.208912
35.75058,94.99519,-0.5243611,0.999737,3.22183
35.80223,93.72369,-0.5033339,0.9999016,3.234749
35.85061,92.96081,-0.3946934,0.999737,3.241208
35.90167,105.4214,-0.1616423,0.9999016,3.254126
35.95106,136.9542,0.01708817,0.9999016,3.267045
36.0008,133.1398,0.1327373,0.9999016,3.279963
36.05218,122.7136,0.2133415,0.999737,3.292881
36.10089,114.9575,0.2571479,0.999737,3.3058
36.15208,106.4386,0.3219814,0.9999016,3.318718
36.20047,106.82,0.392072,0.999737,3.325177
36.25082,106.82,0.4919511,0.999737,3.338095
36.30238,111.7788,0.5445189,0.999737,3.351014
36.35108,106.5657,0.5865731,0.999737,3.357473
36.40208,103.387,0.6321317,0.999737,3.370391
36.45068,99.19109,0.6286274,0.999737,3.376851
36.50108,98.04675,0.562041,0.999737,3.389769
36.55209,97.41101,0.4726762,0.999737,3.402687
36.60059,97.15671,0.3412564,0.9999016,3.409146
36.65163,95.37663,0.1572687,0.999737,3.415606
36.70088,96.90242,-0.07928666,0.999737,3.422065
36.75038,118.5177,-0.2334851,0.999737,3.428524
36.80163,137.3357,-0.3491349,0.999737,3.434983
36.8512,127.6724,-0.4262341,0.999737,3.441442
36.90184,120.9335,-0.5120947,0.999737,3.447901
36.95034,111.1431,-0.7136051,0.999737,3.45436
37.00032,106.6929,-1.069314,0.9999016,3.460819
37.05182,107.2015,-1.349676,0.999737,3.467279
37.10056,109.4901,-1.537168,0.999737,3.467279
37.15134,107.9643,-1.314631,0.9999016,3.473738
37.20134,103.387,-1.034269,0.999737,3.480197
37.2509,101.0983,-0.8975927,0.999737,3.480197
37.30163,99.19109,-1.265567,0.9999016,3.486656
37.35117,98.04675,-1.659826,0.999737,3.486656
37.40235,96.77527,-1.915656,0.9999016,3.486656
37.45031,96.01237,-1.821034,0.999737,3.493115
37.50135,95.75809,-1.640551,0.9999016,3.493115
37.55231,123.4765,-1.60901,0.9999016,3.499574
37.60073,139.3701,-1.531911,0.999737,3.499574
37.65155,136.1913,-1.512636,0.999737,3.506034
37.70055,125.638,-1.587983,0.999737,3.499574
37.75146,120.9335,-1.61602,0.999737,3.506034
37.80184,113.1774,-1.624781,0.999737,3.506034
37.85085,105.5485,-1.533663,0.999737,3.506034
37.90252,108.8544,-1.403996,0.999737,3.506034
37.95058,113.5589,-1.363694,0.9995722,3.506034
38.00122,107.2015,-1.123635,0.999737,3.512493
38.0522,102.1155,-0.9186199,1.000066,3.512493
38.10057,99.82683,-0.7959614,0.999737,3.512493
38.15175,98.04675,-0.5804332,0.9995722,3.512493
38.20116,96.90242,-0.2159629,0.999737,3.512493
38.25046,96.13953,-0.04248888,0.999737,3.512493
38.30133,95.12233,0.0556381,0.999737,3.512493
38.35095,94.10515,0.1152145,0.9995722,3.512493
38.40132,128.181,0.164278,0.999737,3.512493
38.4506,138.0986,0.1923144,0.999737,3.512493
38.50114,134.2841,0.4095948,0.999737,3.518952
38.55231,124.6208,0.7214972,0.999737,3.518952
38.60095,116.6105,1.000107,0.999737,3.518952
38.65218,106.5657,1.056179,0.999737,3.518952
38.70146,106.4386,1.10349,0.999737,3.518952
38.75058,109.2358,1.175333,0.999737,3.525411
38.80157,113.0503,1.210378,0.9999016,3.525411
38.85077,107.71,1.224397,0.9999016,3.525411
38.90149,102.1155,1.236662,0.999737,3.525411
38.95046,99.57254,1.276964,0.999737,3.525411
39.00131,98.04675,1.292734,0.999737,3.53187
39.05195,96.64812,1.313761,0.999737,3.538329
39.1008,96.13953,1.292734,0.999737,3.538329
39.15187,94.61374,1.28923,0.999737,3.538329
39.20115,110.6345,1.429411,0.9999016,3.53187
39.25074,134.2841,1.495996,0.9999016,3.538329
39.30229,138.8615,1.492492,0.9999016,3.53187
39.35099,121.315,1.552069,0.999737,3.53187
39.40189,118.8991,1.569592,0.9999016,3.53187
39.45087,109.9987,1.573096,0.9999016,3.53187
39.50129,106.6929,1.639682,0.999737,3.525411
39.55182,107.71,1.69225,0.999737,3.525411
39.60145,110.3802,1.690497,0.9999016,3.53187
39.65245,107.2015,1.709773,1.000066,3.538329
39.70086,105.1671,1.729047,0.999737,3.538329
39.7513,102.2427,1.7308,0.9999016,3.544789
39.80161,98.80965,1.7308,0.999737,3.551248
39.85161,97.53816,1.718534,0.999737,3.551248
39.90229,97.28386,1.697507,0.9999016,3.551248
39.95111,96.52097,1.771102,0.9999016,3.551248
40.00079,98.04675,1.790377,0.999737,3.564166
40.05159,135.4285,1.716782,0.9999016,3.570625
40.10088,140.6415,1.665966,0.999737,3.564166
40.15157,132.8855,1.739562,0.9995722,3.570625
40.20057,123.7308,1.755332,0.999737,3.577085
40.25057,116.4833,1.629169,0.9999016,3.583544
40.30173,109.8716,1.538051,0.999737,3.590003
40.35059,109.1087,1.499502,0.9999016,3.590003
40.40166,110.3802,1.473218,0.999737,3.596462
40.45042,113.8132,1.473218,0.9999016,3.602921
40.50066,106.3114,1.448686,0.999737,3.596462
40.55256,102.6241,1.315514,0.999737,3.596462
40.60059,100.9712,1.170076,0.999737,3.602921
40.65258,98.1739,1.154306,0.9999016,3.60938
40.70079,98.42819,1.171828,0.999737,3.615839
40.75127,94.48659,1.140287,0.999737,3.622298
40.80142,94.61374,1.042161,0.999737,3.622298
40.85117,118.2634,1.035152,0.9999016,3.622298
40.90215,134.157,1.042161,0.999737,3.60938
40.95059,132.7583,0.9563005,0.999737,3.615839
41.00058,123.2222,0.6741859,0.9999016,3.615839
41.05186,116.7376,0.3359999,0.999737,3.622298
41.10153,107.4557,-0.0757817,0.999737,3.622298
41.15257,105.1671,-0.04599318,0.999737,3.622298
41.20138,105.0399,-0.02146176,0.999737,3.622298
41.25121,107.9643,-0.2475036,0.999737,3.622298
41.30159,103.5141,-0.4682883,0.999737,3.622298
41.35116,100.7169,-0.7223665,0.999737,3.615839
41.40158,97.9196,-1.092093,0.999737,3.622298
41.45158,96.52097,-1.211247,0.999737,3.622298
41.50152,95.75809,-1.121882,0.9999016,3.622298
41.55138,92.7065,-1.260311,0.999737,3.622298
41.60138,92.19792,-1.873602,0.9999016,3.622298
41.65191,91.94361,-1.919161,0.999737,3.622298
41.70043,94.10515,-1.785989,0.9999016,3.622298
41.75058,125.2566,-1.214752,0.999737,3.622298
41.80142,135.047,-0.554149,0.999737,3.615839
41.85142,124.748,-0.2194672,0.9999016,3.615839
41.90258,118.2634,-0.00919605,0.9999016,3.615839
41.95153,108.2186,-0.08454311,0.999737,3.60938
42.00154,106.3114,-0.3000714,0.999737,3.602921
42.05198,106.3114,-0.4402519,1.000066,3.602921
42.10057,107.71,-0.4542705,0.999737,3.602921
42.15215,106.1843,-0.4472612,0.999737,3.596462
42.2005,102.2427,-0.4700405,0.999737,3.596462
42.25113,98.1739,-0.5278654,0.999737,3.602921
42.30231,95.50377,-0.6627895,0.999737,3.60938
42.35107,94.61374,-0.7521551,0.9995722,3.602921
42.40155,93.85085,-0.8169886,0.999737,3.602921
42.45153,93.34225,-1.421519,0.9999016,3.596462
42.50057,93.08795,-2.120671,0.999737,3.596462
42.55157,97.02956,-2.949491,0.999737,3.590003
42.60118,132.504,-2.937225,0.999737,3.590003
42.65209,134.157,-2.567498,0.999737,3.583544
42.70085,128.6896,-2.248586,0.9999016,3.583544
42.75139,124.8751,-1.982243,0.9999016,3.583544
42.80143,111.5245,-1.556443,0.999737,3.583544
42.85093,105.6757,-1.311126,0.999737,3.583544
42.90184,105.8028,-1.440794,0.999737,3.577085
42.95136,106.6929,-2.040067,0.999737,3.577085
43.00129,108.8544,-2.644598,0.999737,3.570625
43.05185,103.6413,-3.117708,0.999737,3.570625
43.1007,102.2427,-2.681395,0.9999016,3.564166
43.15254,98.04675,-2.252091,0.999737,3.564166
43.20105,96.77527,-2.292393,0.999737,3.557707
43.25064,96.13953,-3.01082,0.9999016,3.557707
43.30256,94.2323,-3.412088,0.999737,3.557707
43.35152,92.07076,-3.557526,0.999737,3.551248
43.40251,91.43503,-3.461152,0.9999016,3.551248
43.45093,114.8304,-3.347255,0.9999016,3.544789
43.50085,136.5728,-3.149248,0.999737,3.538329
43.55228,130.8511,-2.986289,0.9999016,3.538329
43.60043,118.5177,-2.998554,0.999737,3.53187
43.65153,111.1431,-3.122965,0.999737,3.53187
43.70051,105.6757,-3.110699,0.9999016,3.525411
43.75109,103.7684,-2.394024,0.999737,3.518952
43.80167,103.387,-1.68611,0.999737,3.518952
43.85081,106.82,-0.9781963,0.9999016,3.506034
43.90209,101.8612,-0.4069591,0.9999016,3.499574
43.95084,99.57254,-0.06176384,0.999737,3.493115
44.00081,97.53816,0.3219814,0.999737,3.493115
44.05209,93.85085,0.3675406,0.9999016,3.493115
44.10156,92.96081,0.3535221,0.9999016,3.486656
44.1518,92.7065,0.376302,0.999737,3.486656
44.20152,91.30788,0.2221029,0.9999016,3.480197
44.25092,89.90925,0.1187195,0.9999016,3.473738
44.30193,114.7032,0.3237335,0.999737,3.473738
44.35129,138.3529,0.3903198,0.999737,3.473738
44.40234,135.6828,0.3202292,0.999737,3.473738
44.45074,122.4593,0.3535221,0.999737,3.473738
44.50098,114.9575,0.08192167,0.9999016,3.473738
44.55188,103.7684,-0.370162,0.999737,3.467279
44.60081,100.7169,-0.3368685,0.999737,3.467279
44.65227,100.9712,-0.29131,0.9999016,3.460819
44.70079,103.0055,-0.4174727,0.999737,3.460819
44.7505,102.8784,-0.6592852,0.999737,3.45436
44.80181,98.55534,-0.8450249,0.999737,3.460819
44.85057,97.28386,-1.050039,0.9999016,3.45436
44.9018,93.59654,-1.0588,0.9999016,3.447901
44.95108,92.57936,-1.134148,0.9999016,3.447901
45.00064,92.19792,-1.116625,0.999737,3.447901
45.05209,91.43503,-0.9010971,0.9999016,3.447901
45.10081,91.43503,-0.6575324,0.999737,3.447901
45.15195,102.8784,-0.5033339,0.9999016,3.45436
45.20126,130.5968,-0.366657,0.999737,3.45436
45.25161,134.5384,-0.3876842,0.999737,3.45436
45.30156,131.4868,-0.5366268,0.9999016,3.45436
45.35157,117.8819,-0.8800699,0.999737,3.460819
45.4016,106.4386,-1.332154,0.999737,3.460819
45.45113,102.6241,-1.24454,0.9999016,3.460819
45.50157,102.6241,-0.822245,0.999737,3.467279
45.55237,105.6757,-0.5962038,0.9999016,3.467279
45.60079,105.0399,-0.5997081,0.999737,3.467279
45.65164,100.9712,-0.9519127,0.999737,3.467279
45.70079,98.9368,-1.053544,0.999737,3.473738
45.75136,96.52097,-1.072819,0.9999016,3.473738
45.80151,94.35944,-0.8520336,0.9999016,3.480197
45.85165,93.2151,-0.5120947,0.9999016,3.486656
45.90241,93.34225,-0.08279096,0.9999016,3.486656
45.95091,92.32506,0.5024647,0.999737,3.493115
46.00128,92.7065,0.7600472,0.9999016,3.506034
46.05216,115.0847,0.8721914,0.999737,3.506034
46.10049,134.9198,0.9843362,0.9999016,3.512493
46.1516,125.3837,1.022886,0.9999016,3.512493
46.20127,117.2462,1.098233,0.999737,3.512493
46.25116,110.6345,1.194608,0.9999016,3.512493
46.30266,103.7684,1.215635,0.9999016,3.518952
46.35141,103.0055,1.231405,0.9999016,3.518952
46.40176,105.1671,1.14204,0.999737,3.525411
46.45164,107.8372,1.014125,0.999737,3.525411
46.50148,103.1327,0.8774485,0.999737,3.525411
46.55201,99.44539,0.7442765,0.999737,3.53187
46.60107,98.04675,0.6671773,0.9999016,3.53187
46.65232,96.13953,0.6251231,0.9999016,3.538329
46.70092,94.74089,0.4639148,0.999737,3.538329
46.75088,93.59654,0.1712873,0.999737,3.538329
46.80265,92.57936,-0.1073224,0.9999016,3.53187
46.85078,104.9128,-0.3210985,0.999737,3.53187
46.90263,137.9714,-0.554149,0.999737,3.538329
46.95119,136.0642,-0.9133627,0.9999016,3.538329
47.00077,123.4765,-1.372456,0.9999016,3.538329
47.05207,115.8476,-1.87185,0.9999016,3.538329
47.10163,106.4386,-2.20478,0.999737,3.544789
47.15157,104.4042,-2.397529,0.9999016,3.544789
47.20074,105.0399,-2.194266,0.9999016,3.544789
47.25055,107.71,-2.087378,0.9999016,3.544789
47.30211,105.6757,-1.983995,0.999737,3.538329
47.3514,101.8612,-1.843814,0.9999016,3.525411
47.40232,98.55534,-1.68611,0.999737,3.53187
47.4505,96.13953,-1.596745,0.999737,3.525411
47.50152,94.86804,-1.67034,0.999737,3.525411
47.55167,94.10515,-1.894629,0.9999016,3.538329
47.60108,92.7065,-2.187257,0.9999016,3.544789
47.65213,93.34225,-2.868887,1.000066,3.538329
47.70078,107.9643,-3.341997,0.999737,3.53187
47.75153,136.3185,-3.336741,0.9999016,3.518952
47.80207,138.48,-3.385804,0.999737,3.53187
47.85068,129.9611,-3.513719,0.9999016,3.525411
47.90253,121.315,-3.815108,0.999737,3.525411
47.95078,111.7788,-3.941271,0.999737,3.53187
48.00139,106.4386,-3.930757,0.999737,3.53187
48.05226,107.0743,-3.914987,1.000066,3.538329
48.10115,111.7788,-3.83964,0.999737,3.53187
48.15227,109.2358,-3.716981,0.999737,3.525411
48.20048,105.1671,-3.676679,0.9999016,3.53187
48.25065,101.0983,-3.646891,0.9999016,3.538329
48.3025,97.66531,-3.650396,0.9999016,3.538329
48.35073,95.24948,-3.664413,0.999737,3.544789
48.402,94.99519,-3.652148,0.999737,3.551248
48.45054,94.61374,-3.680184,0.999737,3.551248
48.50171,94.2323,-3.662661,0.999737,3.557707
48.55156,99.19109,-3.657405,0.999737,3.551248
48.60131,134.157,-3.634625,0.999737,3.544789
48.65252,137.9714,-3.555773,0.9999016,3.564166
48.70115,131.8683,-3.515471,0.999737,3.570625
48.75148,124.6208,-3.56103,0.999737,3.577085
48.80252,111.3974,-3.61535,0.9999016,3.583544
48.85149,106.5657,-3.639882,0.999737,3.583544
48.90219,106.0571,-3.629369,0.9999016,3.583544
48.95139,107.2015,-3.611846,0.9999016,3.590003
49.00119,110.253,-3.590818,0.999737,3.596462
49.05172,104.1499,-3.555773,0.999737,3.596462
49.10168,102.2427,-3.517224,0.9999016,3.602921
49.15164,98.80965,-3.503206,0.999737,3.60938
49.20099,97.28386,-3.490939,0.9999016,3.60938
49.25086,96.26666,-3.483931,0.999737,3.615839
49.3026,95.37663,-3.54526,0.9999016,3.615839
49.35127,94.61374,-3.52248,0.999737,3.615839
49.40187,97.41101,-3.52248,0.9999016,3.622298
49.45166,128.4353,-3.517224,0.9999016,3.628757
49.50164,135.8099,-3.547012,0.999737,3.628757
49.55265,132.1226,-3.499701,0.999737,3.628757
49.60053,124.8751,-3.492692,0.999737,3.628757
49.65253,114.7032,-3.487435,0.9999016,3.635217
49.70139,109.6173,-3.480426,0.9999016,3.635217
49.7513,108.3458,-3.462904,0.999737,3.635217
49.80256,108.3458,-3.450638,0.999737,3.635217
49.85066,113.0503,-3.43662,0.9999016,3.635217
49.90191,106.82,-3.384052,0.999737,3.635217
49.95087,102.497,-3.294686,0.9999016,3.635217
50.00087,99.57254,-3.238614,0.9999016,3.635217
50.05168,97.66531,-3.18955,0.9999016,3.635217
50.10051,96.77527,-3.101938,0.999737,3.635217
50.15218,96.26666,-3.177285,0.999737,3.635217
50.20086,94.2323,-3.284173,0.9999016,3.635217
50.25116,94.86804,-3.410336,0.9999016,3.635217
50.30182,116.7376,-3.466408,0.9999016,3.635217
50.351,138.0986,-3.476922,0.999737,3.628757
50.40248,134.6656,-3.426106,0.9999016,3.628757
50.45162,121.9507,-3.408583,0.9999016,3.628757
50.50109,117.7548,-3.396317,0.9999016,3.622298
50.55217,106.9472,-3.394565,0.999737,3.628757
50.60082,105.93,-3.377042,0.999737,3.622298
50.65249,109.1087,-3.294686,0.9999016,3.622298
50.7008,111.0159,-3.247375,0.9999016,3.622298
50.75097,106.1843,-3.101938,0.999737,3.622298
50.80216,101.4798,-2.506169,0.999737,3.622298
50.85075,99.95398,-1.877107,0.9999016,3.622298
50.90182,96.39381,-1.826291,0.9999016,3.628757
50.95148,96.52097,-2.026049,0.999737,3.615839
51.00055,96.52097,-2.199523,0.999737,3.615839
51.0523,95.75809,-2.404537,0.9999016,3.60938
51.10136,95.63092,-2.814567,0.9999016,3.602921
51.15192,116.4833,-3.131726,0.9999016,3.602921
51.20132,138.2257,-3.126469,0.9999016,3.602921
51.2508,135.4285,-3.115956,0.999737,3.602921
51.30201,123.9851,-3.117708,0.999737,3.602921
51.35163,118.6448,-3.122965,0.999737,3.602921
51.40229,107.9643,-3.172028,0.999737,3.602921
51.45152,106.4386,-3.285925,0.9999016,3.596462
51.5008,106.6929,-3.37529,0.999737,3.590003
51.55221,111.1431,-3.394565,0.999737,3.583544
51.60164,104.9128,-3.373538,0.999737,3.577085
51.65178,100.2083,-3.312209,0.999737,3.570625
51.70176,100.3354,-3.292934,0.999737,3.577085
51.75122,96.39381,-3.238614,0.999737,3.570625
51.80153,96.52097,-3.117708,0.9999016,3.570625
51.85099,93.85085,-2.965261,0.999737,3.564166
51.90226,93.34225,-2.250338,0.9999016,3.564166
51.9515,96.26666,-1.714147,0.999737,3.557707
52.0015,135.1741,-1.425023,0.9999016,3.551248
52.05159,134.9198,-0.7942093,0.9999016,3.544789
52.10125,126.7823,-0.4595269,0.9999016,3.544789
52.15176,118.6448,-0.1914309,0.999737,3.544789
52.20175,108.4729,0.01884032,0.9999016,3.538329
52.25122,104.5313,0.3044592,0.9999016,3.53187
52.30222,105.2942,0.5129783,0.9999016,3.53187
52.35075,111.0159,0.6689295,0.999737,3.525411
52.40199,106.0571,0.8073578,0.999737,3.518952
52.45075,102.3698,0.9177505,0.999737,3.518952
52.5015,98.04675,0.9913455,0.9999016,3.512493
52.55278,96.13953,1.038657,0.999737,3.512493
52.60054,95.12233,1.07195,0.999737,3.506034
52.65179,95.24948,1.066693,0.9999016,3.499574
52.70123,93.72369,1.045665,0.9999016,3.493115
52.75127,93.46941,1.008868,0.999737,3.493115
52.80177,125.0023,0.9720705,0.9999016,3.493115
52.85122,136.5728,0.9124935,0.999737,3.486656
52.90179,131.2325,0.7950922,0.999737,3.480197
52.95109,118.2634,0.6076003,0.999737,3.473738
53.00101,110.5073,0.3657884,0.9999016,3.473738
53.05262,104.7856,0.0451239,0.9999016,3.467279
53.10058,105.5485,-0.2580172,0.9999016,3.467279
53.15185,107.2015,-0.5191039,0.999737,3.460819
53.20174,108.8544,-0.84152,0.999737,3.45436
53.25149,102.2427,-1.169193,0.9999016,3.45436
53.30166,99.19109,-1.421519,0.9999016,3.45436
53.3507,97.66531,-1.626533,0.999737,3.45436
53.40213,94.61374,-1.899886,0.9999016,3.447901
53.4516,94.2323,-2.141698,0.9999016,3.447901
53.50169,92.96081,-2.944234,0.9999016,3.447901
53.55279,92.96081,-3.087919,0.9999016,3.441442
53.60179,92.96081,-3.3052,0.9999016,3.447901
53.65172,121.8235,-3.363024,0.999737,3.441442
53.70074,133.9027,-3.408583,0.9999016,3.441442
53.75074,125.0023,-3.417345,0.999737,3.441442
53.80183,120.9335,-3.447133,0.999737,3.447901
53.85123,111.7788,-3.501453,0.9999016,3.45436
53.90176,104.9128,-3.554021,0.9999016,3.45436
53.95123,104.4042,-3.524233,0.999737,3.467279
54.00122,106.3114,-3.499701,0.9999016,3.467279
54.05078,108.7272,-3.469912,0.9999016,3.473738
54.10178,102.6241,-3.431363,0.9999016,3.486656
54.15066,99.19109,-3.391061,0.999737,3.493115
54.20145,96.77527,-3.312209,0.999737,3.499574
54.25078,94.48659,-3.298191,0.9999016,3.512493
54.30165,93.72369,-3.294686,0.9999016,3.525411
54.35221,92.57936,-3.287678,0.999737,3.53187
54.40086,92.96081,-3.366529,0.999737,3.544789
54.45146,93.08795,-3.315713,0.9999016,3.551248
54.5009,92.57936,-3.37529,0.999737,3.557707
54.55125,129.1982,-3.37529,0.9999016,3.570625
54.60236,136.8271,-3.415592,0.9999016,3.577085
54.65149,130.0882,-3.410336,0.9999016,3.590003
54.70176,120.9335,-3.410336,0.9999016,3.596462
54.75146,113.1774,-3.417345,0.999737,3.602921
54.80113,106.4386,-3.412088,0.9999016,3.615839
54.85238,105.5485,-3.391061,0.9999016,3.622298
54.90176,107.2015,-3.373538,0.999737,3.628757
54.95178,109.1087,-3.349007,0.999737,3.635217
55.00065,103.5141,-3.308705,0.9999016,3.641676
55.05165,100.2083,-3.28242,0.999737,3.648135
55.10246,97.28386,-3.268403,0.9999016,3.654594
55.15124,94.86804,-3.256137,0.9999016,3.661053
55.20111,94.48659,-3.222843,0.9999016,3.667513
55.2509,93.72369,-3.219339,0.999737,3.667513
55.30148,92.96081,-3.245623,0.9999016,3.673972
55.3525,92.57936,-3.270155,0.9999016,3.680431
55.40122,91.05358,-3.284173,0.999737,3.68689
55.45123,116.229,-3.310457,0.9999016,3.693349
55.50124,139.3701,-3.341997,0.999737,3.693349
55.55143,134.5384,-3.285925,0.999737,3.693349
55.60175,126.0195,-3.163267,0.999737,3.699808
55.65134,116.9919,-3.030095,0.9999016,3.699808
55.70121,111.3974,-2.844355,0.999737,3.699808
55.75126,105.2942,-2.159221,0.999737,3.706268
55.80177,104.9128,-1.714147,0.9999016,3.706268
55.85196,109.8716,-1.524902,0.9999016,3.706268
55.90106,105.6757,-0.9817012,0.9999016,3.712727
55.95174,100.7169,-0.5120947,0.999737,3.706268
56.0015,97.28386,-0.2001923,0.9999016,3.712727
56.05165,95.75809,0.050381,1.000066,3.712727
56.10278,94.99519,0.3307428,0.999737,3.712727
56.15124,92.96081,0.5217397,0.9999016,3.712727
56.20107,92.19792,0.5988389,0.9999016,3.712727
56.25177,91.81647,0.7039744,0.999737,3.712727
56.30077,91.68932,0.8056057,0.9999016,3.712727
56.35273,91.43503,0.8914663,0.9999016,3.706268
56.40096,114.3218,0.9563005,0.999737,3.712727
56.45135,137.7171,0.9930976,0.999737,3.706268
56.50077,132.7583,1.019382,0.999737,3.706268
56.55117,116.6105,1.012373,0.9999016,3.706268
56.60265,110.3802,1.003611,0.9999016,3.706268
56.65077,102.6241,0.9930976,0.999737,3.699808
56.70106,102.6241,0.9685662,0.999737,3.699808
56.7515,105.5485,0.9107413,0.9999016,3.699808
56.80149,105.6757,0.8161193,0.999737,3.699808
56.8527,104.7856,0.6829473,0.9999016,3.693349
56.90148,101.4798,0.5305004,0.999737,3.693349
56.95107,97.9196,0.3622835,0.999737,3.693349
57.00116,94.99519,0.2448822,0.999737,3.693349
57.0515,94.10515,-0.02321391,1.000066,3.693349
57.10172,94.99519,-0.2650258,0.9999016,3.693349
57.15102,94.99519,-0.554149,0.9999016,3.68689
57.20085,93.34225,-0.8082272,0.9999016,3.68689
57.25164,101.9884,-1.309374,0.9999016,3.680431
57.30095,134.157,-1.572213,0.9999016,3.680431
57.35221,139.2429,-1.892877,0.999737,3.680431
57.40127,128.4353,-2.122423,0.999737,3.68689
57.45129,117.2462,-2.576259,0.9999016,3.680431
57.50127,108.8544,-2.984536,0.999737,3.680431
57.55064,104.9128,-3.066892,0.9999016,3.680431
57.60263,105.1671,-3.086167,0.9999016,3.673972
57.65128,109.1087,-3.136983,0.9999016,3.680431
57.70128,109.1087,-3.177285,0.9999016,3.680431
57.75119,102.7513,-3.121213,0.999737,3.680431
57.80061,99.95398,-3.077406,0.9999016,3.680431
57.85161,98.04675,-3.052874,0.9999016,3.680431
57.90146,97.28386,-3.04937,0.9999016,3.680431
57.95107,94.99519,-3.042361,0.999737,3.68689
58.00114,94.99519,-3.04937,0.9999016,3.68689
58.05065,94.61374,-3.077406,0.999737,3.693349
58.10224,93.34225,-3.180789,0.9999016,3.693349
58.15164,107.8372,-3.254385,0.999737,3.699808
58.20135,139.6244,-3.259641,0.9999016,3.706268
58.25109,138.0986,-3.273659,0.9999016,3.706268
58.30183,130.724,-3.284173,0.999737,3.712727
58.35259,121.315,-3.294686,0.999737,3.719186
58.40069,110.7616,-3.312209,0.999737,3.719186
58.45148,108.3458,-3.287678,0.9999016,3.719186
58.5013,109.1087,-3.275412,0.9999016,3.725645
58.55161,111.0159,-3.245623,0.999737,3.732104
58.60188,109.4901,-3.186046,0.9999016,3.738563
58.65085,105.6757,-3.166771,0.999737,3.738563
58.70188,103.387,-3.098433,0.999737,3.745023
58.75119,100.9712,-3.094929,0.9999016,3.745023
58.80119,98.6825,-3.086167,1.000066,3.751482
58.85229,97.28386,-3.073901,0.9999016,3.751482
58.90188,96.90242,-3.143992,0.9999016,3.751482
58.95131,95.75809,-3.112451,0.9999016,3.751482
59.00096,98.30104,-3.163267,0.999737,3.757941
59.05145,134.5384,-3.15801,0.9999016,3.757941
59.10288,140.3873,-3.175533,0.9999016,3.757941
59.15155,133.9027,-3.175533,0.9999016,3.7644
59.20168,126.9095,-3.184294,0.9999016,3.7644
59.25138,115.8476,-3.217587,1.000066,3.757941
59.30098,112.6688,-3.208825,0.999737,3.757941
59.35167,112.6688,-3.179037,0.9999016,3.7644
59.40067,113.9403,-3.166771,0.999737,3.757941
59.45146,114.7032,-3.075654,0.9999016,3.7644
59.50146,107.9643,-2.914446,0.9999016,3.7644
59.55121,105.6757,-2.443087,0.999737,3.7644
59.60205,102.3698,-1.905143,0.999737,3.7644
59.65171,100.2083,-1.591488,0.9999016,3.7644
59.70106,100.2083,-1.402243,0.9999016,3.7644
59.75146,100.5897,-1.184963,0.999737,3.757941
59.80106,100.3354,-0.9974712,0.999737,3.757941
59.85254,97.9196,-0.6680459,0.9999016,3.757941
59.90071,111.0159,-0.4630319,0.999737,3.757941
59.95095,140.8958,-0.3298599,0.9999016,3.757941
60.00119,139.7515,-0.2334851,0.999737,3.751482
60.05146,133.6484,-0.09856097,0.999737,3.751482
60.10272,124.8751,0.02059248,0.9999016,3.751482
60.15081,115.2118,0.1239759,0.9999016,3.751482
60.20143,115.7204,0.3289906,0.999737,3.745023
60.25125,118.0091,0.4498969,0.999737,3.745023
60.30071,122.0779,0.5094733,0.999737,3.745023
60.35194,112.2874,0.584821,0.999737,3.738563
60.40172,109.9987,0.6479024,0.999737,3.738563
60.45146,104.7856,0.7039744,0.9999016,3.738563
60.50172,103.7684,0.7425244,0.999737,3.732104
60.55095,103.7684,0.7582944,0.999737,3.732104
60.60175,103.0055,0.7617993,0.9999016,3.725645
60.65173,102.2427,0.7232494,1.000066,3.725645
60.70172,100.5897,0.6514066,0.9999016,3.725645
60.75172,100.7169,0.5602889,0.999737,3.719186
60.80093,140.2601,0.4498969,0.999737,3.719186
60.85225,141.2773,0.3657884,0.9999016,3.712727
60.90147,137.4628,0.2606522,0.9999016,3.712727
60.95151,131.2325,0.05739025,0.9999016,3.706268
61.00142,120.9335,-0.142368,0.999737,3.706268
61.05149,115.339,-0.2843007,0.999737,3.699808
61.10271,116.1019,-0.385932,0.9999016,3.699808
61.15124,119.2806,-0.5015811,0.999737,3.699808
61.20186,113.8132,-0.6803123,0.999737,3.693349
61.25124,111.7788,-0.8432721,0.9999016,3.68689
61.30117,109.4901,-0.9484084,0.9999016,3.68689
61.35199,105.5485,-1.090341,1.000066,3.680431
61.40128,104.4042,-1.225265,0.9999016,3.680431
61.45105,103.0055,-1.403996,0.9999016,3.667513
61.5011,102.6241,-1.652817,0.9999016,3.661053
61.55099,101.4798,-1.843814,0.9999016,3.661053
61.60199,99.57254,-2.050581,0.999737,3.661053
61.6507,132.1226,-2.222302,1.000066,3.648135
61.70107,140.5144,-2.467618,0.999737,3.648135
61.75069,141.2773,-2.513178,0.999737,3.648135
61.80146,135.8099,-2.614809,0.9999016,3.641676
61.85268,130.9782,-2.690156,0.9999016,3.635217
61.90155,119.4077,-2.944234,0.9999016,3.628757
61.95132,117.7548,-2.963509,0.9999016,3.622298
62.00078,119.2806,-2.954748,0.9999016,3.622298
62.05107,124.748,-2.951243,0.9999016,3.615839
62.10203,112.5417,-2.895171,0.9999016,3.60938
62.15154,110.253,-2.807557,0.9999016,3.602921
62.20105,106.5657,-2.767255,0.9999016,3.602921
62.25145,105.1671,-2.712935,0.9999016,3.596462
62.30132,103.7684,-2.725201,0.999737,3.590003
62.35231,103.387,-2.756742,0.9999016,3.590003
62.40069,102.6241,-2.726954,0.999737,3.583544
62.45165,101.4798,-2.872391,1.000066,3.577085
62.50158,99.57254,-2.818071,0.999737,3.577085
62.55167,111.1431,-3.093176,0.9999016,3.570625
62.60201,139.6244,-3.089672,0.9999016,3.564166
62.65132,141.2773,-3.110699,0.9999016,3.564166
62.70098,140.5144,-3.105442,0.9999016,3.557707
62.75082,137.7171,-3.119461,0.999737,3.551248
62.80118,124.748,-3.161515,0.9999016,3.551248
62.85246,118.0091,-3.165019,0.9999016,3.544789
62.90102,118.1362,-3.112451,0.999737,3.538329
62.95115,120.2978,-3.110699,0.999737,3.538329
63.00166,118.8991,-3.094929,0.9999016,3.53187
63.05166,112.2874,-3.045865,1.000066,3.53187
63.10257,108.0915,-3.024838,0.9999016,3.525411
63.15132,105.93,-3.005563,0.999737,3.518952
63.20077,104.9128,-2.970518,0.9999016,3.518952
63.25146,103.7684,-2.963509,1.000066,3.512493
63.30144,102.7513,-2.968766,0.9999016,3.506034
63.35206,101.0983,-2.961756,0.9999016,3.506034
63.40077,99.95398,-3.000306,0.999737,3.506034
63.45192,98.80965,-2.995049,0.9999016,3.499574
63.5009,98.42819,-3.021333,0.9999016,3.499574
63.55094,125.3837,-3.021333,0.9999016,3.493115
63.60206,140.1329,-3.012572,0.999737,3.486656
63.65152,140.2601,-2.982784,0.9999016,3.486656
63.70144,136.9542,-2.970518,0.9999016,3.486656
63.75118,130.3425,-2.930216,0.9999016,3.486656
63.8014,119.1534,-2.784778,0.999737,3.473738
63.85268,117.7548,-2.439583,0.9999016,3.473738
63.90148,119.2806,-2.012031,1.000066,3.473738
63.95173,124.1122,-1.666835,0.9999016,3.473738
64.00177,113.0503,-1.279586,0.999737,3.467279
64.05178,109.8716,-1.072819,0.9999016,3.467279
64.10295,107.3286,-0.711853,0.999737,3.467279
64.15094,104.277,-0.4384998,0.9999016,3.467279
64.20094,103.8956,-0.3053278,0.9999016,3.460819
64.25119,102.7513,-0.1931836,0.9999016,3.460819
64.3019,102.2427,-0.04774533,0.9999016,3.460819
64.35218,100.5897,0.06615166,0.999737,3.45436
64.40093,99.31824,0.1309852,0.999737,3.45436
64.45196,98.1739,0.2764228,0.9999016,3.45436
64.50146,98.30104,0.3657884,0.999737,3.447901
64.5513,117.2462,0.4428876,0.9999016,3.447901
64.60223,141.4044,0.5007125,0.9999016,3.447901
64.65111,137.8443,0.5427667,0.9999016,3.441442
64.7013,133.7755,0.5672982,0.999737,3.441442
64.75143,126.6552,0.5953345,0.9999016,3.447901
64.80155,116.7376,0.6076003,0.999737,3.441442
64.85217,114.9575,0.6093524,0.9999016,3.441442
64.90109,120.5521,0.5935824,0.999737,3.441442
64.95191,118.6448,0.5515275,0.999737,3.441442
65.00178,112.1602,0.5024647,0.999737,3.434983
65.05075,108.4729,0.4428876,0.9999016,3.434983
65.10193,104.9128,0.3517699,0.9999016,3.434983
65.15122,103.8956,0.2098365,0.9999016,3.434983
65.20079,103.5141,0.1011966,0.999737,3.428524
65.25127,101.8612,-0.01795746,1.000066,3.428524
65.30129,100.3354,-0.1528816,0.9999016,3.428524
65.35246,99.57254,-0.3070807,0.9999016,3.422065
65.40088,98.42819,-0.5033339,0.9999016,3.422065
65.45122,96.13953,-0.7258708,0.999737,3.422065
65.5008,104.5313,-1.00448,0.9999016,3.415606
65.55192,135.8099,-1.134148,0.9999016,3.422065
65.60178,139.3701,-1.311126,0.999737,3.422065
65.65124,133.9027,-1.46883,0.9999016,3.415606
65.70107,132.2497,-1.656322,0.9999016,3.415606
65.75109,115.8476,-1.803512,0.9999016,3.415606
65.80106,113.4317,-1.978738,0.9999016,3.415606
65.85278,114.1946,-2.036563,1.000066,3.409146
65.90142,119.2806,-2.176743,0.999737,3.415606
65.95126,112.2874,-2.259099,0.999737,3.409146
66.00146,108.8544,-2.259099,0.9999016,3.409146
66.05117,104.9128,-2.27487,1.000066,3.409146
66.10268,102.6241,-2.348465,0.999737,3.409146
66.15154,101.8612,-2.355474,0.999737,3.402687
66.20081,100.7169,-2.306411,0.9999016,3.402687
66.25105,99.19109,-2.401033,0.9999016,3.402687
66.30176,99.06393,-2.483389,0.9999016,3.402687
66.35307,97.15671,-2.518434,0.999737,3.396228
66.40089,96.13953,-2.651606,0.9999016,3.396228
66.45138,94.86804,-2.77076,0.9999016,3.396228
66.50114,107.5829,-2.979279,0.9999016,3.396228
66.5519,140.8958,-2.974022,0.999737,3.389769
66.60201,140.1329,-2.984536,0.999737,3.396228
66.65137,132.6312,-2.995049,1.000066,3.389769
66.7019,128.3081,-3.009068,1.000066,3.389769
66.75146,122.7136,-3.063388,0.9999016,3.389769
66.80193,112.5417,-3.051122,0.999737,3.389769
66.85267,112.6688,-3.021333,0.999737,3.389769
66.90187,117.2462,-3.016077,0.9999016,3.389769
66.951,114.3218,-2.993297,0.9999016,3.389769
67.00076,107.2015,-2.97227,0.9999016,3.389769
67.05187,104.9128,-2.954748,0.9999016,3.389769
67.10292,102.2427,-2.945987,0.9999016,3.389769
67.15163,101.6069,-2.931968,0.999737,3.389769
67.20157,99.95398,-2.875896,0.9999016,3.389769
67.25115,99.19109,-2.891666,0.999737,3.389769
67.30181,97.28386,-2.902179,0.9999016,3.389769
67.35205,96.52097,-2.881152,0.9999016,3.38331
67.40092,95.37663,-2.961756,0.999737,3.389769
67.45164,93.72369,-2.949491,0.9999016,3.389769
67.50171,99.95398,-2.979279,0.9999016,3.389769
67.55295,133.3941,-2.970518,0.9999016,3.38331
67.60225,140.1329,-2.979279,0.9999016,3.389769
67.6519,133.7755,-2.97227,1.000066,3.389769
67.70118,129.1982,-2.984536,0.999737,3.38331
67.75193,118.5177,-2.995049,0.9999016,3.389769
67.80291,110.253,-2.982784,0.9999016,3.389769
67.8522,111.2702,-2.952995,0.9999016,3.38331
67.90112,116.3562,-2.910941,0.9999016,3.389769
67.95191,114.9575,-2.688404,0.9999016,3.389769
68.00189,107.9643,-2.38351,0.999737,3.389769
68.0527,102.8784,-1.922666,0.9999016,3.389769
68.10243,101.4798,-1.586231,0.9999016,3.38331
68.15166,100.7169,-1.249797,1.000066,3.389769
68.20166,98.6825,-1.037773,0.999737,3.38331
68.2517,98.04675,-0.6452667,0.9999016,3.389769
68.30249,97.28386,-0.4367476,0.9999016,3.389769
68.35216,96.90242,-0.3088328,0.999737,3.389769
68.40193,94.48659,-0.2527601,0.9999016,3.38331
68.4514,94.10515,-0.1388631,1.000066,3.389769
68.50094,103.7684,-0.007443897,0.9999016,3.38331
68.55219,141.023,0.129233,0.9999016,3.38331
68.60218,139.6244,0.2992021,0.999737,3.38331
68.65167,130.3425,0.451649,0.9999016,3.38331
68.70079,125.1294,0.5199868,0.9999016,3.38331
68.75194,111.6517,0.5585368,0.9999016,3.38331
68.80198,109.1087,0.6128567,0.9999016,3.38331
68.85191,110.6345,0.6566638,0.9999016,3.38331
68.90103,114.9575,0.6882044,0.9999016,3.38331
68.9514,111.906,0.7162402,0.9999016,3.38331
69.0013,105.93,0.7250016,0.999737,3.38331
69.05203,103.6413,0.7232494,0.9999016,3.38331
69.10282,99.82683,0.7127358,0.999737,3.38331
69.15115,100.2083,0.6811951,0.9999016,3.38331
69.20103,99.19109,0.6233703,0.9999016,3.376851
69.25101,97.15671,0.5077211,0.999737,3.38331
69.30274,96.52097,0.3815584,0.9999016,3.376851
69.35237,95.88522,0.1590215,0.9999016,3.376851
69.40133,95.12233,-0.01795746,0.9999016,3.376851
69.45115,116.6105,-0.1686516,0.9999016,3.376851
69.50191,138.8615,-0.3246028,0.9999016,3.376851
69.55307,135.8099,-0.4069591,0.999737,3.370391
69.60242,123.6036,-0.5734239,0.9999016,3.370391
69.6513,119.662,-0.8520336,0.9999016,3.370391
69.70198,111.3974,-1.072819,0.9999016,3.376851
69.75115,109.9987,-1.234027,0.9999016,3.370391
69.80294,110.253,-1.419766,0.9999016,3.370391
69.85287,113.8132,-1.60025,0.9999016,3.363932
69.90141,107.5829,-1.626533,0.9999016,3.370391
69.95129,103.7684,-1.635295,0.9999016,3.370391
70.00097,100.5897,-1.65457,0.9999016,3.363932
70.05273,98.30104,-1.661579,0.9999016,3.363932
70.10236,98.42819,-1.714147,0.9999016,3.363932
70.15166,97.66531,-1.807016,0.999737,3.363932
70.20087,96.39381,-1.903391,0.9999016,3.363932
70.25144,95.63092,-2.085626,0.9999016,3.363932
70.30236,94.86804,-2.302907,0.999737,3.357473
70.35281,94.2323,-2.579763,0.999737,3.357473
70.40157,112.2874,-2.625323,0.999737,3.357473
70.45125,139.2429,-2.653358,0.9999016,3.357473
70.50112,136.9542,-2.667377,0.9999016,3.357473
70.55212,128.0538,-2.714688,0.999737,3.351014
70.60306,122.5864,-2.805805,0.999737,3.351014
70.65181,110.5073,-2.940729,0.9999016,3.357473
70.70151,109.363,-2.884657,0.9999016,3.351014
70.75144,111.7788,-2.842603,0.999737,3.351014
70.80279,115.4661,-2.807557,0.9999016,3.351014
70.85224,109.4901,-2.761999,0.9999016,3.344555
70.90104,105.0399,-2.735715,0.9999016,3.351014
70.95112,101.3526,-2.719945,0.999737,3.351014
71.00094,100.0811,-2.69366,0.9999016,3.351014
71.05241,99.06393,-2.690156,0.9999016,3.351014
71.10262,97.53816,-2.697165,0.9999016,3.351014
71.15169,96.39381,-2.697165,0.999737,3.351014
71.20121,95.63092,-2.73922,0.9999016,3.351014
71.25093,95.24948,-2.740972,0.9999016,3.351014
71.30216,94.99519,-2.783026,0.999737,3.344555
71.35291,106.0571,-2.835594,0.9999016,3.351014
71.40162,140.5144,-2.952995,0.9999016,3.344555
71.45208,138.3529,-2.958252,0.9999016,3.344555
71.50092,128.8167,-2.961756,0.999737,3.344555
71.55212,125.1294,-2.981031,0.999737,3.344555
71.6025,113.0503,-3.017829,0.999737,3.344555
71.65141,112.1602,-3.000306,0.9999016,3.344555
71.70193,112.1602,-2.975775,1.000066,3.344555
71.75169,113.4317,-2.961756,0.999737,3.338095
71.80246,111.3974,-2.945987,0.999737,3.344555
71.85242,105.1671,-2.928464,0.9999016,3.338095
71.90102,103.2598,-2.91795,0.9999016,3.338095
71.95099,100.9712,-2.874144,0.999737,3.338095
72.00164,99.44539,-2.798796,0.9999016,3.338095
72.05193,98.30104,-2.830337,1.000066,3.338095
72.10247,97.66531,-2.861878,0.999737,3.338095
72.1519,97.28386,-2.816319,0.999737,3.338095
72.20097,96.52097,-2.907437,0.9999016,3.338095
72.25206,93.978,-2.860125,0.9999016,3.338095
72.30223,96.13953,-2.830337,0.9999016,3.338095
72.35212,127.9267,-2.704174,0.9999016,3.338095
72.40116,140.2601,-2.609552,0.999737,3.338095
72.4514,133.3941,-2.238072,0.9999016,3.338095
72.50201,125.2566,-1.934931,0.9999016,3.338095
72.55236,115.7204,-1.735174,0.9999016,3.338095
72.60208,111.3974,-1.421519,0.999737,3.338095
72.65136,111.2702,-1.163936,0.9999016,3.331636
72.70142,114.5761,-1.022003,0.999737,3.331636
72.75195,109.8716,-0.6540281,0.9999016,3.331636
72.80219,106.82,-0.3946934,0.9999016,3.331636
72.85224,105.1671,-0.2825486,0.9999016,3.331636
72.90093,101.4798,-0.177413,0.999737,3.331636
72.95168,99.95398,-0.06176384,0.999737,3.331636
73.00161,99.57254,0.09418739,0.9999016,3.331636
73.0526,98.6825,0.2098365,0.999737,3.331636
73.1028,97.53816,0.337752,0.9999016,3.331636
73.15137,97.66531,0.3833106,0.9999016,3.325177
73.20097,95.37663,0.4393833,0.9999016,3.331636
73.25105,96.90242,0.4604104,0.9999016,3.325177
73.30212,127.7995,0.4989597,0.9999016,3.325177
73.35284,140.3873,0.5077211,0.9999016,3.325177
73.40179,135.6828,0.5269961,0.999737,3.325177
73.45164,129.071,0.5287483,0.9999016,3.325177
73.50167,115.9747,0.5094733,0.9999016,3.331636
73.55239,110.6345,0.4884462,0.999737,3.325177
73.60299,111.5245,0.4481441,0.9999016,3.325177
73.6515,117.6276,0.3850627,0.9999016,3.325177
73.70124,118.5177,0.2799271,1.000066,3.325177
73.75138,106.82,0.2010758,0.999737,3.325177
73.80202,104.7856,0.1344895,0.999737,3.325177
73.85193,101.4798,0.07491242,0.9999016,3.318718
73.90102,100.2083,-0.0004346424,0.9999016,3.318718
73.952,99.31824,-0.06351599,0.999737,3.325177
74.001,98.80965,-0.1844222,0.9999016,3.318718
74.05231,98.80965,-0.310585,0.9999016,3.325177
74.10218,97.53816,-0.4437569,0.9999016,3.318718
74.15141,96.13953,-0.5891946,0.9999016,3.318718
74.20097,101.4798,-0.8029707,0.9999016,3.318718
74.25204,142.2945,-0.9729398,0.9999016,3.312259
74.30205,139.2429,-1.055296,0.9999016,3.318718
74.35262,132.6312,-1.15868,0.999737,3.318718
74.40208,128.0538,-1.319887,0.9999016,3.318718
74.45206,118.2634,-1.479343,0.9999016,3.318718
74.50204,112.1602,-1.565204,0.999737,3.318718
74.55234,112.796,-1.584479,0.9999016,3.312259
74.60305,116.4833,-1.617772,0.999737,3.312259
74.652,111.0159,-1.645808,0.9999016,3.318718
74.70117,108.4729,-1.668587,0.9999016,3.312259
74.75099,105.6757,-1.666835,0.9999016,3.318718
74.80239,102.8784,-1.684358,0.999737,3.318718
74.85212,100.9712,-1.733421,0.9999016,3.312259
74.90099,99.44539,-1.821034,0.9999016,3.312259
74.95211,99.44539,-1.959463,0.9999016,3.312259
75.001,99.06393,-1.966472,0.999737,3.312259
75.05197,96.39381,-2.297649,0.999737,3.318718
75.10287,96.01237,-2.562241,0.9999016,3.312259
75.15146,106.3114,-2.744476,0.999737,3.318718
75.20159,140.2601,-3.256137,0.999737,3.312259
75.25116,139.6244,-3.660909,1.000066,3.312259
75.30283,135.4285,-3.820365,0.999737,3.312259
75.35282,128.4353,-3.72399,0.9999016,3.312259
75.40199,118.5177,-3.508462,0.9999016,3.312259
75.45135,114.1946,-3.017829,0.9999016,3.312259
75.50111,116.4833,-2.551728,0.9999016,3.318718
75.55213,118.8991,-2.507921,0.999737,3.318718
75.60271,117.2462,-2.444839,0.999737,3.318718
75.65135,107.5829,-2.446591,0.9999016,3.318718
75.7011,107.9643,-2.500912,0.999737,3.318718
75.75191,104.9128,-2.621818,0.9999016,3.318718
75.80289,101.0983,-3.077406,0.9999016,3.318718
75.85209,100.2083,-3.357768,0.9999016,3.318718
75.90186,99.06393,-3.767797,0.999737,3.318718
75.95149,98.80965,-4.195349,0.999737,3.318718
76.00095,97.66531,-4.899758,0.999737,3.325177
76.05209,96.52097,-5.721569,0.9999016,3.325177
76.10191,114.1946,-5.849484,0.9999016,3.331636
76.15184,140.3873,-6.00894,0.9999016,3.325177
76.202,137.7171,-5.972143,0.9999016,3.331636
76.25164,130.9782,-5.889785,0.9999016,3.331636
76.3019,127.1638,-5.805677,0.999737,3.331636
76.35244,115.339,-5.67601,0.999737,3.331636
76.40108,113.4317,-5.449968,0.999737,3.331636
76.45164,114.4489,-5.097764,0.9999016,3.331636
76.50163,117.6276,-4.771843,0.999737,3.331636
76.55189,110.253,-4.26544,0.999737,3.331636
76.60274,107.4557,-3.857162,0.9999016,3.331636
76.65123,103.387,-3.594323,0.9999016,3.338095
76.70123,102.497,-3.135231,0.9999016,3.338095
76.75212,102.1155,-2.653358,0.999737,3.338095
76.80259,100.7169,-2.485141,0.9999016,3.331636
76.85235,99.19109,-2.103148,0.9999016,3.331636
76.90096,98.30104,-2.045324,0.9999016,3.331636
76.95198,97.15671,-1.785989,0.999737,3.338095
77.00139,97.66531,-1.521398,0.999737,3.338095
77.05215,126.6552,-1.248045,0.999737,3.331636
77.10215,142.4216,-1.116625,0.999737,3.331636
77.15182,137.9714,-0.9238763,0.9999016,3.331636
77.20147,129.7068,-0.6032124,0.999737,3.338095
77.25217,122.3321,-0.3964456,0.9999016,3.338095
77.30215,113.4317,-0.272035,0.999737,3.338095
77.35284,113.4317,-0.1633951,0.999737,3.338095
77.40136,115.0847,-0.03898457,0.999737,3.338095
77.45103,113.3046,0.09068308,0.9999016,3.338095
77.50202,109.1087,0.2659093,0.999737,3.338095
77.55267,104.9128,0.4166034,0.9999016,3.338095
77.60295,103.6413,0.4726762,0.9999016,3.338095
77.6512,101.7341,0.4954554,0.9999016,3.338095
77.70107,100.9712,0.4919511,0.999737,3.331636
77.7513,100.3354,0.4551533,0.999737,3.338095
77.80268,98.42819,0.3622835,0.999737,3.331636
77.8522,98.30104,0.1467552,0.9999016,3.331636
77.90206,98.30104,-0.03197532,0.999737,3.331636
77.95138,132.7583,-0.2159629,0.9999016,3.338095
78.00209,140.5144,-0.3824277,0.9999016,3.338095
78.0522,135.5556,-0.5243611,0.9999016,3.331636
78.10212,128.0538,-0.6820645,0.9999016,3.331636
78.15212,121.6964,-0.7293751,0.999737,3.331636
78.2021,113.0503,-0.7661729,0.999737,3.331636
78.25102,112.9231,-0.8572906,0.9999016,3.331636
78.30198,113.686,-1.0588,0.9999016,3.331636
78.35258,115.339,-1.163936,0.999737,3.331636
78.40121,107.5829,-1.267319,0.9999016,3.331636
78.45183,105.5485,-1.265567,0.999737,3.331636
78.50134,100.9712,-1.241036,0.999737,3.331636
78.55296,100.7169,-1.295356,0.9999016,3.331636
78.60249,100.3354,-1.361942,0.9999016,3.331636
78.6521,99.82683,-1.542425,0.999737,3.338095
78.7021,98.42819,-1.856079,1.000066,3.331636
78.75198,97.53816,-1.807016,0.9999016,3.338095
78.80219,108.8544,-1.868346,0.9999016,3.331636
78.85197,138.0986,-1.877107,0.9999016,3.338095
78.90198,140.5144,-1.894629,0.9999016,3.338095
78.95197,137.2085,-1.919161,0.999737,3.338095
79.00182,131.9954,-1.971729,0.9999016,3.338095
79.05232,124.1122,-2.059342,0.9999016,3.344555
79.10236,113.8132,-2.171487,0.9999016,3.344555
79.1511,113.4317,-2.180248,0.999737,3.344555
79.20168,115.0847,-2.162725,0.999737,3.351014
79.25154,116.6105,-2.141698,1.000066,3.351014
79.30235,109.9987,-2.108405,0.9999016,3.351014
79.35245,105.93,-2.08913,0.999737,3.351014
79.4021,103.8956,-2.061094,0.999737,3.357473
79.45161,101.7341,-2.052333,0.9999016,3.357473
79.50162,101.8612,-2.050581,0.9999016,3.363932
79.55286,99.95398,-2.024297,0.999737,3.363932
79.60258,99.44539,-2.066351,0.9999016,3.370391
79.65132,98.30104,-2.045324,0.9999016,3.376851
79.70145,97.02956,-2.068103,0.9999016,3.376851
79.75146,105.93,-2.082121,0.999737,3.38331
79.80211,114.1946,-2.092635,0.9999016,3.38331
79.85223,138.8615,-2.083873,0.999737,3.389769
79.90201,132.2497,-2.097892,0.999737,3.389769
79.95187,126.7823,-2.113662,0.999737,3.402687
80.00201,115.4661,-2.152212,0.9999016,3.402687
80.05229,115.339,-2.136441,0.9999016,3.409146
80.10308,115.4661,-2.129432,0.999737,3.409146
80.15157,118.0091,-2.082121,0.999737,3.415606
80.20107,111.3974,-1.947197,0.9999016,3.422065
80.25192,107.0743,-1.728165,0.999737,3.422065
80.30301,104.1499,-1.514388,0.9999016,3.428524
80.35269,101.4798,-1.279586,0.9999016,3.434983
80.40151,101.8612,-1.067562,0.999737,3.434983
80.45101,100.3354,-0.822245,0.9999016,3.441442
80.50102,99.57254,-0.6312488,0.9999016,3.441442
80.55215,97.66531,-0.4788019,0.999737,3.447901
80.60221,96.39381,-0.3123371,0.999737,3.447901
80.65207,113.3046,-0.2422465,0.9999016,3.45436
80.7016,136.4456,-0.142368,0.999737,3.460819
80.75169,141.6587,-0.003938946,0.9999016,3.460819
80.80218,131.4868,0.1134624,0.999737,3.460819
80.85294,126.2737,0.262405,0.9999016,3.467279
80.90209,115.339,0.3745492,0.9999016,3.467279
80.95209,114.1946,0.4656669,0.9999016,3.473738
81.00137,114.7032,0.5497754,0.9999016,3.473738
81.05254,117.6276,0.6040959,0.999737,3.473738
81.1027,109.8716,0.6706816,0.9999016,3.480197
81.15134,108.3458,0.7197451,0.9999016,3.480197
81.20155,104.6585,0.7512858,0.999737,3.486656
81.25193,103.0055,0.7635515,0.9999016,3.486656
81.30284,103.0055,0.7635515,0.999737,3.486656
81.35197,101.7341,0.7547901,0.9999016,3.493115
81.40195,100.2083,0.7109837,0.9999016,3.493115
81.45196,97.9196,0.6286274,0.9999016,3.493115
81.50145,97.53816,0.5077211,0.9999016,3.493115
81.55198,120.5521,0.3798063,0.9999016,3.493115
81.6026,142.8031,0.2010758,0.999737,3.499574
81.65097,138.8615,0.0538853,0.9999016,3.499574
81.70163,134.157,-0.04424103,0.999737,3.499574
81.75165,131.614,-0.09155237,0.999737,3.499574
81.80213,112.9231,-0.1020659,0.999737,3.506034
81.85296,111.7788,-0.08629526,0.999737,3.506034
81.90182,113.9403,-0.08629526,0.9999016,3.506034
81.95168,117.6276,-0.1388631,0.999737,3.506034
82.00195,109.9987,-0.1861744,0.9999016,3.506034
82.05253,106.82,-0.2983193,0.9999016,3.512493
82.10281,103.387,-0.4858111,0.9999016,3.506034
82.15112,103.0055,-0.6890731,0.9999016,3.512493
82.20135,99.57254,-1.055296,0.9999016,3.512493
82.25204,98.6825,-1.316383,0.9999016,3.512493
82.30305,98.80965,-1.64756,0.999737,3.512493
82.35262,98.42819,-1.898134,0.9999016,3.512493
82.40135,96.90242,-2.138194,0.999737,3.512493
82.45173,123.8579,-2.457105,0.9999016,3.512493
82.5013,137.2085,-2.563993,0.999737,3.518952
82.55312,139.2429,-2.572755,0.999737,3.512493
82.60244,131.8683,-2.595534,0.9999016,3.518952
82.65208,128.4353,-2.62357,0.9999016,3.518952
82.70162,119.2806,-2.69366,0.9999016,3.518952
82.75134,111.906,-2.691908,0.9999016,3.518952
82.80262,112.9231,-2.672633,0.999737,3.518952
82.85258,113.8132,-2.648102,0.999737,3.518952
82.90176,110.1259,-2.630579,0.999737,3.518952
82.95193,106.82,-2.613057,0.9999016,3.518952
83.00212,104.1499,-2.585021,0.9999016,3.518952
83.05235,101.3526,-2.571002,0.999737,3.525411
83.10235,100.2083,-2.567498,0.999737,3.525411
83.15192,99.19109,-2.567498,0.9999016,3.525411
83.20133,99.19109,-2.597286,0.9999016,3.525411
83.2512,98.30104,-2.585021,0.9999016,3.53187
83.30292,97.66531,-2.600791,0.999737,3.53187
83.35212,110.3802,-2.611304,0.999737,3.53187
83.40141,144.2017,-2.637588,0.999737,3.53187
83.45187,139.7515,-2.644598,0.9999016,3.538329
83.5014,133.9027,-2.64635,0.9999016,3.538329
83.55257,130.8511,-2.658615,0.999737,3.538329
83.60228,118.1362,-2.665625,0.9999016,3.544789
83.65183,114.5761,-2.656863,1.000066,3.544789
83.70208,114.1946,-2.649854,0.9999016,3.544789
83.75209,115.7204,-2.648102,0.999737,3.544789
83.80262,114.5761,-2.637588,0.999737,3.551248
83.8521,108.7272,-2.620065,0.9999016,3.557707
83.90217,105.2942,-2.556984,0.999737,3.557707
83.95162,101.4798,-2.371244,0.999737,3.557707
84.00104,101.7341,-2.026049,0.9999016,3.564166
84.05254,100.5897,-1.815777,0.999737,3.564166
84.10293,99.95398,-1.57747,0.999737,3.564166
84.15107,99.06393,-1.46883,0.999737,3.564166
84.20155,96.39381,-1.220009,0.999737,3.564166
84.25179,106.0571,-1.118377,0.9999016,3.570625
84.30279,142.5488,-0.8450249,0.9999016,3.570625
84.35309,140.8958,-0.5348746,0.999737,3.570625
84.40157,136.0642,-0.3456299,0.999737,3.570625
84.45161,128.4353,-0.256265,0.9999016,3.570625
84.50129,118.0091,-0.1844222,0.9999016,3.570625
84.55308,112.5417,-0.07052525,0.999737,3.570625
84.60307,112.2874,0.08016952,0.999737,3.570625
84.65107,113.686,0.199323,0.9999016,3.570625
84.70203,116.1019,0.372797,0.999737,3.570625
84.75203,110.6345,0.4831897,0.9999016,3.570625
84.80254,105.5485,0.5567846,0.999737,3.570625
84.85252,103.0055,0.6233703,0.999737,3.570625
84.90128,101.0983,0.6846995,0.999737,3.570625
84.95157,99.44539,0.733763,0.9999016,3.570625
85.00107,98.80965,0.7547901,0.9999016,3.570625
85.05215,97.66531,0.7547901,0.999737,3.564166
85.10304,97.53816,0.7460287,0.999737,3.570625
85.15153,99.44539,0.7232494,0.9999016,3.570625
85.20157,129.1982,0.7057266,0.9999016,3.570625
85.25143,141.6587,0.6829473,0.9999016,3.570625
85.30231,136.9542,0.6303796,0.9999016,3.564166
85.35204,126.528,0.5672982,0.9999016,3.564166
85.40196,116.8647,0.5094733,0.999737,3.564166
85.45199,110.5073,0.4288698,0.9999016,3.564166
85.50197,110.253,0.3500178,0.999737,3.564166
85.55269,113.0503,0.1958187,0.9999016,3.557707
85.60291,114.0675,0.06439886,0.9999016,3.557707
85.65131,106.82,-0.0004346424,0.9999016,3.557707
85.70104,104.7856,-0.04424103,0.9999016,3.557707
85.75218,103.387,-0.08804742,0.9999016,3.557707
85.80219,100.3354,-0.1563859,0.999737,3.551248
85.85271,99.06393,-0.2282286,0.999737,3.551248
85.90219,98.04675,-0.350887,0.9999016,3.551248
85.95204,96.77527,-0.5278654,0.999737,3.551248
86.00222,96.52097,-0.6908259,0.9999016,3.551248
86.05247,97.28386,-0.9904626,0.9999016,3.544789
86.10248,135.6828,-1.111368,0.9999016,3.544789
86.15166,140.5144,-1.295356,0.9995722,3.544789
86.2014,134.2841,-1.428528,0.9999016,3.544789
86.25204,126.7823,-1.637047,0.9999016,3.538329
86.30321,117.2462,-1.868346,0.9999016,3.538329
86.35248,109.8716,-2.083873,0.999737,3.53187
86.40203,109.9987,-2.146955,0.999737,3.53187
86.45196,110.7616,-2.253843,0.999737,3.53187
86.50185,111.5245,-2.432574,0.9999016,3.53187
86.55293,105.2942,-2.418556,0.999737,3.53187
86.60284,104.0227,-2.415051,0.999737,3.53187
86.6516,100.3354,-2.308163,0.999737,3.525411
86.70104,99.06393,-2.246834,0.9999016,3.525411
86.75133,97.66531,-2.231064,0.999737,3.518952
86.80254,97.28386,-2.232816,0.9999016,3.518952
86.8526,96.39381,-2.350217,0.9999016,3.512493
86.90231,95.37663,-2.500912,0.999737,3.518952
86.95147,93.34225,-2.635836,0.9999016,3.512493
87.00156,116.229,-2.705927,0.9999016,3.506034
87.0531,141.023,-2.851364,0.9999016,3.506034
87.10304,137.8443,-2.861878,0.999737,3.499574
87.15182,128.0538,-2.891666,0.999737,3.506034
87.20181,123.6036,-2.91795,0.999737,3.499574
87.25126,111.7788,-2.921454,0.9999016,3.499574
87.30307,109.363,-2.893419,0.999737,3.499574
87.35326,112.5417,-2.811062,0.999737,3.493115
87.40184,114.8304,-2.767255,0.999737,3.493115
87.45132,107.9643,-2.719945,0.9999016,3.493115
87.50132,104.1499,-2.69366,0.9999016,3.493115
87.55282,100.2083,-2.67789,0.999737,3.486656
87.60307,98.55534,-2.648102,0.999737,3.486656
87.65184,98.42819,-2.644598,0.9999016,3.486656
87.70184,96.90242,-2.641093,0.999737,3.480197
87.75192,95.75809,-2.62357,0.999737,3.480197
87.80228,95.37663,-2.676138,0.999737,3.480197
87.85259,94.86804,-2.648102,0.999737,3.473738
87.90133,94.2323,-2.669129,0.999737,3.473738
87.95164,127.5452,-2.665625,0.9999016,3.473738
88.00169,140.1329,-2.660367,0.999737,3.467279
88.05247,132.2497,-2.599038,0.999737,3.460819
88.10296,124.3665,-2.467618,0.9999016,3.467279
88.15125,117.7548,-2.180248,0.9999016,3.467279
88.20155,109.8716,-1.894629,0.999737,3.460819
88.25159,109.4901,-1.530159,0.9999016,3.460819
88.30282,110.5073,-1.218257,0.999737,3.460819
88.35242,114.0675,-1.079828,0.999737,3.45436
88.40206,106.6929,-0.7433937,0.999737,3.45436
88.45129,102.6241,-0.4384998,0.9999016,3.45436
88.50156,100.3354,-0.2860535,0.9999016,3.45436
88.55251,97.9196,-0.1493766,0.999737,3.447901
88.60249,96.13953,-0.0109482,0.999737,3.447901
88.65108,95.75809,0.109958,0.9999016,3.447901
88.70211,96.13953,0.2501386,0.999737,3.441442
88.75177,95.75809,0.3605313,0.999737,3.441442
88.80311,93.72369,0.4656669,0.999737,3.441442
88.8532,95.75809,0.5112261,0.999737,3.441442
88.90177,127.6724,0.5760596,0.9999016,3.434983
88.95183,139.8786,0.6303796,0.999737,3.434983
89.00159,133.0126,0.679443,0.999737,3.434983
89.05315,121.9507,0.7267537,0.9999016,3.434983
89.10316,113.1774,0.7442765,0.999737,3.428524
89.15151,107.2015,0.7653036,0.999737,3.428524
89.20226,108.0915,0.7915879,0.999737,3.428524
89.25117,111.3974,0.8143671,0.9999016,3.428524
89.30244,109.8716,0.828385,0.999737,3.428524
89.3521,104.9128,0.8318899,0.9999016,3.428524
89.40131,103.387,0.828385,0.999737,3.422065
89.45202,100.2083,0.8213764,0.9999016,3.422065
89.50194,98.42819,0.8073578,0.999737,3.422065
89.55312,97.02956,0.7828264,0.999737,3.422065
89.6021,97.02956,0.7022223,0.9999016,3.422065
89.65195,97.15671,0.6111045,0.9999016,3.415606
89.70184,94.99519,0.5234918,0.999737,3.415606
89.75114,94.2323,0.4323741,0.999737,3.415606
89.80291,124.1122,0.2974499,0.999737,3.409146
89.8522,140.8958,0.1677823,0.9999016,3.409146
89.90166,131.8683,0.03986744,0.999737,3.409146
89.95146,122.0779,-0.05825889,0.9999016,3.409146
90.00137,116.8647,-0.1668994,0.999737,3.409146
90.05279,107.8372,-0.3035757,0.999737,3.402687
90.10242,107.9643,-0.3631527,0.999737,3.409146
90.15129,112.2874,-0.4525183,0.9999016,3.402687
90.20226,113.4317,-0.5699196,0.9995722,3.402687
90.25157,106.4386,-0.7293751,0.9999016,3.402687
90.30328,101.3526,-0.8029707,0.999737,3.402687
90.35291,99.69969,-0.9308856,0.999737,3.402687
90.40208,98.80965,-1.051792,0.9999016,3.402687
90.45158,96.77527,-1.176202,0.999737,3.396228
90.50158,96.13953,-1.354933,0.9999016,3.396228
90.55262,95.37663,-1.57747,0.9995722,3.396228
90.60223,94.99519,-1.761457,0.999737,3.396228
90.65163,94.10515,-1.998013,0.9999016,3.396228
90.7014,107.9643,-2.173239,0.999737,3.389769
90.7514,137.59,-2.451849,0.999737,3.396228
90.80326,138.8615,-2.474628,0.9999016,3.389769
90.85265,128.181,-2.527196,0.999737,3.389769
90.90182,123.8579,-2.590277,0.999737,3.389769
90.95182,111.3974,-2.653358,0.999737,3.389769
91.00151,109.6173,-2.64635,0.999737,3.389769
91.05303,110.8888,-2.635836,0.999737,3.38331
91.10227,112.0331,-2.630579,0.999737,3.38331
91.15228,109.6173,-2.611304,0.999737,3.38331
91.20185,104.9128,-2.59203,0.9999016,3.38331
91.2517,101.4798,-2.56925,0.9999016,3.38331
91.30282,99.69969,-2.521939,0.999737,3.38331
91.35223,97.9196,-2.518434,0.9995722,3.38331
91.40126,97.41101,-2.525444,0.9995722,3.376851
91.45127,96.90242,-2.534205,0.999737,3.376851
91.50187,95.88522,-2.578011,0.999737,3.376851
91.55311,94.48659,-2.571002,0.999737,3.38331
91.60213,104.4042,-2.627075,0.9999016,3.376851
91.65234,137.4628,-2.70067,0.999737,3.370391
91.70235,141.6587,-2.740972,0.999737,3.370391
91.75175,137.59,-2.726954,0.9999016,3.376851
91.80236,124.8751,-2.751485,0.999737,3.370391
91.85229,112.5417,-2.788282,0.999737,3.370391
91.90186,109.9987,-2.744476,0.999737,3.370391
91.95128,110.253,-2.695413,0.9999016,3.370391
92.0015,115.8476,-2.688404,0.999737,3.370391
92.05238,111.2702,-2.667377,0.9995722,3.370391
92.10255,105.8028,-2.64635,0.999737,3.370391
92.15194,105.1671,-2.620065,0.999737,3.370391
92.20157,100.7169,-2.549975,0.999737,3.370391
92.25215,99.95398,-2.472876,0.999737,3.370391
92.30282,99.82683,-2.178496,0.999737,3.363932
92.35282,98.1739,-1.992756,0.999737,3.370391
92.40148,97.53816,-1.819282,0.9999016,3.363932
92.45186,96.13953,-1.705385,0.999737,3.370391
92.50232,101.4798,-1.509132,0.999737,3.363932
92.55328,137.0814,-1.232274,0.999737,3.363932
92.60304,143.566,-1.106112,0.999737,3.363932
92.65215,138.3529,-0.8923357,0.9999016,3.363932
92.70214,129.9611,-0.6224874,0.999737,3.363932
92.7513,126.2737,-0.4279862,0.999737,3.357473
92.80252,111.906,-0.3281078,0.999737,3.357473
92.85262,111.6517,-0.2089537,0.999737,3.357473
92.90231,112.796,-0.1073224,0.999737,3.357473
92.95178,115.4661,-0.007443897,0.9999016,3.357473
93.00233,108.9815,0.1222238,0.999737,3.357473
93.05238,106.5657,0.2834321,0.999737,3.357473
93.10233,103.2598,0.4393833,0.999737,3.357473
93.15113,101.8612,0.5252439,0.999737,3.351014
93.20223,101.2255,0.5953345,0.999737,3.357473
93.25189,99.82683,0.6601681,0.999737,3.357473
93.30306,99.57254,0.6969658,0.9995722,3.357473
93.35293,98.6825,0.7127358,0.9999016,3.357473
93.4015,98.55534,0.7197451,0.999737,3.351014
93.45229,125.7652,0.7320108,0.999737,3.351014
93.502,144.8374,0.7407722,0.9995722,3.351014
93.55246,139.6244,0.7407722,0.9999016,3.351014
93.60241,129.4525,0.7250016,0.9999016,3.351014
93.65148,123.3493,0.7039744,0.9999016,3.357473
93.70129,113.5589,0.6741859,0.999737,3.357473
93.75228,112.1602,0.6479024,0.999737,3.351014
93.803,113.9403,0.6093524,0.999737,3.351014
93.85281,119.662,0.5585368,0.999737,3.351014
93.90139,112.1602,0.505969,0.999737,3.351014
93.95126,109.8716,0.4656669,0.999737,3.351014
94.00142,106.82,0.4236127,0.9995722,3.351014
94.05302,103.1327,0.3868155,0.999737,3.344555
94.10306,100.9712,0.3500178,0.9999016,3.351014
94.15164,102.2427,0.1958187,0.999737,3.344555
94.202,101.0983,0.03461034,0.999737,3.344555
94.25165,97.66531,-0.0757817,0.9999016,3.344555
94.30305,97.9196,-0.1949358,0.9995722,3.344555
94.35248,127.5452,-0.310585,0.9999016,3.344555
94.40176,143.1845,-0.4017027,0.999737,3.344555
94.45206,141.6587,-0.4665362,0.999737,3.344555
94.5012,134.4113,-0.6242396,0.999737,3.344555
94.55233,127.7995,-0.8275021,0.999737,3.344555
94.60248,115.7204,-0.9641784,0.999737,3.344555
94.65206,112.9231,-1.000976,0.999737,3.338095
94.70146,113.4317,-1.106112,0.999737,3.338095
94.75164,115.8476,-1.212999,0.999737,3.344555
94.80278,113.9403,-1.28309,0.9995722,3.344555
94.85326,108.9815,-1.302365,0.999737,3.344555
94.90221,105.0399,-1.349676,0.999737,3.338095
94.95231,103.2598,-1.370703,0.9999016,3.344555
95.00245,101.8612,-1.423271,0.999737,3.338095
95.05278,103.0055,-1.482848,0.999737,3.338095
95.10252,101.8612,-1.540673,0.999737,3.338095
95.15244,99.44539,-1.707137,0.999737,3.331636
95.20213,99.44539,-1.763209,0.999737,3.338095
95.25203,97.53816,-1.950701,0.9999016,3.338095
95.3033,121.8235,-2.055838,0.999737,3.338095
95.35225,144.3289,-2.16623,0.9995722,3.338095
95.40176,141.6587,-2.194266,0.999737,3.331636
95.45197,133.9027,-2.322181,0.999737,3.331636
95.50143,129.8339,-2.444839,0.999737,3.338095
95.55313,116.1019,-2.493903,0.999737,3.338095
95.60328,116.229,-2.490398,0.9995722,3.331636
95.65192,117.3734,-2.479885,0.999737,3.331636
95.70146,117.2462,-2.471123,0.9995722,3.331636
95.75243,110.8888,-2.450096,0.999737,3.325177
95.80342,106.82,-2.42206,0.999737,3.331636
95.85313,104.277,-2.316924,0.9999016,3.331636
95.90142,103.0055,-2.248586,0.9999016,3.331636
95.95142,102.7513,-2.22055,0.9995722,3.331636
96.00157,102.2427,-2.218797,0.999737,3.325177
96.05299,100.3354,-2.222302,0.999737,3.331636
96.10309,100.7169,-2.23632,0.999737,3.331636
96.15127,97.53816,-2.308163,0.999737,3.331636
96.20126,96.90242,-2.320429,0.999737,3.331636
96.25224,106.9472,-2.453601,0.999737,3.331636
96.30327,143.1845,-2.458858,0.999737,3.325177
96.35323,141.4044,-2.509673,0.999737,3.331636
96.40137,137.3357,-2.509673,0.999737,3.325177
96.45121,129.7068,-2.521939,0.999737,3.325177
96.50242,118.6448,-2.527196,0.999737,3.325177
96.55289,113.3046,-2.511425,0.999737,3.325177
96.60256,114.4489,-2.481637,0.999737,3.325177
96.65125,116.8647,-2.425564,0.999737,3.318718
96.70157,118.1362,-2.218797,0.999737,3.325177
96.75209,109.9987,-2.062846,0.999737,3.325177
96.80284,106.5657,-1.859584,0.999737,3.318718
96.85325,103.7684,-1.467078,0.999737,3.325177
96.90161,101.9884,-1.172697,0.999737,3.318718
96.9515,100.7169,-1.06581,0.9995722,3.318718
97.00137,99.57254,-0.7889522,0.999737,3.325177
97.05256,99.19109,-0.5664153,0.999737,3.318718
97.10256,97.79247,-0.4542705,0.999737,3.318718
97.15141,97.02956,-0.3719141,0.999737,3.318718
97.20221,96.13953,-0.3158414,0.999737,3.318718
97.25127,116.9919,-0.2264765,0.999737,3.318718
97.30271,143.566,-0.1476245,0.9999016,3.318718
97.35236,137.3357,-0.0670203,0.9999016,3.318718
97.40166,128.5624,0.006574613,0.999737,3.312259
97.45133,122.8407,0.09593954,0.999737,3.318718
97.50204,112.4145,0.1502601,0.999737,3.318718
97.55303,112.6688,0.2974499,0.999737,3.312259
97.60226,117.5005,0.4078426,0.999737,3.312259
97.65126,117.7548,0.4849419,0.999737,3.312259
97.70141,113.1774,0.5392618,0.999737,3.318718
97.75126,108.6001,0.5883253,0.999737,3.312259
97.80265,104.277,0.6268752,0.999737,3.318718
97.85237,102.7513,0.6479024,0.999737,3.312259
97.9016,100.7169,0.6566638,0.999737,3.312259
97.95129,99.57254,0.6479024,0.999737,3.312259
98.00212,98.55534,0.6303796,0.999737,3.312259
98.05237,97.79247,0.5865731,0.9995722,3.312259
98.10296,96.90242,0.5024647,0.999737,3.312259
98.15203,94.99519,0.4288698,0.9999016,3.3058
98.20124,106.3114,0.2956978,0.999737,3.312259
98.25237,141.7859,0.1414987,0.9995722,3.312259
98.30254,139.8786,0.0451239,0.999737,3.312259
98.35301,131.7411,-0.04073672,0.999737,3.312259
98.40234,124.1122,-0.1301017,0.999737,3.312259
98.45135,114.9575,-0.29131,0.999737,3.312259
98.50146,111.5245,-0.3719141,0.9999016,3.3058
98.55249,112.5417,-0.4437569,0.999737,3.3058
98.60336,116.9919,-0.5401311,0.999737,3.3058
98.65195,110.1259,-0.6768073,0.999737,3.3058
98.70157,108.4729,-0.7206144,0.999737,3.3058
98.75145,105.0399,-0.7644207,0.9999016,3.3058
98.80323,100.7169,-0.8012179,0.999737,3.3058
98.85323,98.9368,-0.8642992,0.999737,3.3058
98.90137,98.1739,-0.9431513,0.999737,3.29934
98.95151,98.55534,-0.9694355,0.999737,3.29934
99.00134,97.53816,-0.9869577,0.999737,3.29934
99.05241,96.90242,-1.162184,0.999737,3.3058
99.10297,95.12233,-1.214752,0.999737,3.3058
99.15128,105.93,-1.389978,0.999737,3.29934
99.20123,136.5728,-1.418014,0.999737,3.29934
99.252,141.7859,-1.475839,0.999737,3.3058
99.30339,138.2257,-1.486353,0.9999016,3.29934
99.3526,126.9095,-1.559948,0.999737,3.29934
99.40218,115.2118,-1.612515,0.999737,3.3058
99.45153,112.1602,-1.633543,0.999737,3.29934
99.50228,112.6688,-1.63179,0.9999016,3.29934
99.55335,114.3218,-1.640551,0.999737,3.29934
99.60327,111.5245,-1.638799,0.999737,3.29934
99.65197,106.9472,-1.617772,0.9999016,3.29934
99.70226,107.2015,-1.61602,0.999737,3.29934
99.75176,102.7513,-1.612515,0.9999016,3.29934
99.80294,101.4798,-1.598497,0.999737,3.29934
99.85265,99.95398,-1.607258,0.999737,3.29934
99.90198,99.19109,-1.649312,0.999737,3.29934
99.9524,97.41101,-1.656322,0.999737,3.292881
100.0023,96.13953,-1.728165,0.9995722,3.29934
100.0525,95.75809,-1.722907,0.9995722,3.292881
100.103,95.37663,-1.808769,0.9999016,3.29934
100.1523,130.5968,-1.873602,0.999737,3.292881
100.2022,143.4388,-1.978738,0.999737,3.292881
100.2523,137.2085,-2.01904,0.9999016,3.292881
100.3035,127.6724,-2.050581,0.9999016,3.292881
100.3534,120.6792,-2.082121,0.9995722,3.29934
100.4017,114.4489,-2.11191,0.999737,3.292881
100.4522,113.5589,-2.103148,0.999737,3.292881
100.5017,113.0503,-2.09614,0.999737,3.292881
100.5533,115.7204,-2.082121,0.999737,3.292881
100.6031,111.1431,-2.054085,0.999737,3.292881
100.6514,106.9472,-2.031306,0.999737,3.292881
100.7019,104.5313,-1.999765,0.999737,3.292881
100.7522,102.6241,-1.982243,0.999737,3.286422
100.8033,101.8612,-1.959463,0.999737,3.292881
100.8531,99.57254,-1.945445,0.999737,3.292881
100.9014,98.55534,-1.920914,0.999737,3.292881
100.9518,97.66531,-1.87185,0.999737,3.292881
101.0017,97.66531,-1.88762,0.999737,3.286422
101.053,96.13953,-1.805264,0.999737,3.292881
101.1027,103.8956,-1.763209,0.999737,3.292881
101.1523,138.3529,-1.630038,0.999737,3.292881
101.2014,144.8374,-1.516141,0.999737,3.292881
101.2514,131.4868,-1.295356,0.999737,3.286422
101.3024,126.9095,-1.141157,0.999737,3.292881
101.3528,118.0091,-1.079828,0.999737,3.292881
101.4016,113.8132,-0.9484084,0.9995722,3.286422
101.4514,113.4317,-0.6540281,0.999737,3.292881
101.5024,118.6448,-0.4227298,0.999737,3.286422
101.5527,113.4317,-0.3228506,0.999737,3.286422
101.6034,109.9987,-0.2159629,0.999737,3.286422
101.6523,105.2942,-0.1178359,0.999737,3.286422
101.7024,104.9128,-0.0144525,0.9995722,3.286422
101.7516,102.8784,0.09944449,0.999737,3.286422
101.8029,101.8612,0.2045801,0.999737,3.286422
101.853,100.3354,0.3640356,0.999737,3.292881
101.9016,99.44539,0.4288698,0.999737,3.286422
101.9524,98.6825,0.4621626,0.999737,3.286422
102.0014,98.04675,0.4744283,0.999737,3.286422
102.0528,96.26666,0.4937033,0.999737,3.286422
102.1025,105.4214,0.4954554,0.9999016,3.286422
102.1523,143.3117,0.5077211,0.9995722,3.286422
102.2017,143.4388,0.5129783,0.9999016,3.279963
102.2515,130.5968,0.5077211,0.999737,3.279963
102.303,126.0195,0.490199,0.999737,3.279963
102.3524,115.5933,0.4726762,0.9999016,3.286422
102.4025,113.5589,0.4463919,0.999737,3.286422
102.4515,114.8304,0.3938241,0.9999016,3.286422
102.502,117.8819,0.2939456,0.999737,3.279963
102.5524,111.1431,0.2063322,0.999737,3.279963
102.6029,106.82,0.1467552,0.999737,3.286422
102.652,105.2942,0.08717878,0.9999016,3.279963
102.7014,105.2942,0.003069662,0.999737,3.279963
102.7513,102.8784,-0.06351599,0.999737,3.279963
102.803,100.7169,-0.1090745,0.9999016,3.286422
102.8533,99.57254,-0.1949358,0.999737,3.279963
102.902,99.95398,-0.3000714,0.9999016,3.286422
102.9523,97.9196,-0.4525183,0.999737,3.279963
103.002,96.90242,-0.5436354,0.9999016,3.279963
103.0535,101.4798,-0.8082272,0.9999016,3.279963
103.1035,135.1741,-0.9046013,0.9999016,3.279963
103.1516,144.9646,-0.9484084,0.9999016,3.279963
103.2022,137.8443,-0.9922147,0.999737,3.279963
103.2522,130.8511,-1.095598,0.999737,3.279963
103.3035,124.748,-1.170945,0.999737,3.279963
103.3534,113.5589,-1.241036,0.999737,3.279963
103.4025,114.7032,-1.237532,0.999737,3.279963
103.4515,118.5177,-1.246292,0.999737,3.279963
103.5016,119.2806,-1.251549,0.999737,3.273504
103.5526,111.7788,-1.249797,0.999737,3.279963
103.6032,106.4386,-1.251549,0.999737,3.273504
103.6516,105.1671,-1.251549,0.999737,3.273504
103.7015,104.5313,-1.246292,0.999737,3.273504
103.7516,103.1327,-1.255054,0.9999016,3.273504
103.8025,100.0811,-1.307621,0.999737,3.273504
103.8531,99.57254,-1.349676,0.999737,3.273504
103.9024,98.9368,-1.367199,0.999737,3.273504
103.9525,98.80965,-1.451307,0.9999016,3.273504
104.0024,97.28386,-1.503875,0.999737,3.273504
104.0535,112.4145,-1.666835,0.999737,3.273504
104.1035,146.3632,-1.728165,0.999737,3.267045
104.1522,144.456,-1.770219,0.999737,3.267045
104.2025,135.047,-1.808769,0.9999016,3.273504
104.2517,130.0882,-1.857832,0.999737,3.273504
104.3027,119.7892,-1.908647,0.999737,3.273504
104.3529,116.4833,-1.920914,0.999737,3.273504
104.4024,116.4833,-1.9104,0.999737,3.273504
104.4515,120.4249,-1.908647,0.9999016,3.267045
104.5025,113.0503,-1.899886,0.999737,3.273504
104.5526,110.3802,-1.875354,0.999737,3.273504
104.6026,107.71,-1.861336,0.999737,3.273504
104.6514,106.1843,-1.850823,0.999737,3.267045
104.7019,104.5313,-1.829796,0.999737,3.267045
104.7525,103.387,-1.828044,0.999737,3.267045
104.8035,102.2427,-1.81753,0.999737,3.267045
104.8527,99.82683,-1.808769,0.999737,3.267045
104.9024,99.95398,-1.845566,0.999737,3.267045
104.9524,98.80965,-1.845566,0.999737,3.267045
105.0014,97.41101,-1.854327,0.999737,3.267045
105.0529,116.8647,-1.847318,0.999737,3.267045
105.1029,147.2533,-1.824539,0.9999016,3.267045
105.1522,143.3117,-1.780732,0.999737,3.267045
105.2018,133.0126,-1.733421,0.999737,3.267045
105.2517,128.0538,-1.668587,0.9999016,3.267045
105.3031,118.6448,-1.55469,0.999737,3.267045
105.3527,116.7376,-1.412757,0.9999016,3.267045
105.402,116.9919,-1.216504,0.999737,3.267045
105.4518,119.2806,-1.0588,0.999737,3.260585
105.5015,112.9231,-0.9081063,0.999737,3.267045
105.5532,108.4729,-0.5576539,0.9999016,3.267045
105.6027,106.4386,-0.3438778,0.999737,3.267045
105.6525,103.0055,-0.2545122,0.999737,3.260585
105.7025,103.0055,-0.1353588,0.999737,3.267045
105.7519,103.0055,-0.04424103,0.999737,3.267045
105.8024,101.9884,0.09243523,0.999737,3.267045
105.8533,100.3354,0.1607737,0.9999016,3.260585
105.9022,98.6825,0.2974499,0.999737,3.267045
105.9522,98.04675,0.357027,0.999737,3.267045
106.0018,97.28386,0.4043377,0.999737,3.260585
106.053,125.7652,0.4674191,0.9999016,3.260585
106.1032,145.9818,0.5269961,0.9999016,3.260585
106.1519,142.0402,0.5795639,0.999737,3.260585
106.2014,134.6656,0.619866,0.999737,3.260585
106.252,127.6724,0.6584159,0.999737,3.267045
106.3032,118.5177,0.6811951,1.000066,3.267045
106.3532,114.1946,0.7057266,0.999737,3.260585
106.4019,116.229,0.7214972,0.999737,3.260585
106.4514,119.0263,0.7232494,0.9999016,3.260585
106.5015,112.4145,0.7302586,0.999737,3.260585
106.5527,109.8716,0.7302586,0.999737,3.260585
106.6032,106.6929,0.7267537,0.999737,3.260585
106.652,104.6585,0.7057266,0.9999016,3.260585
106.7022,103.387,0.6706816,0.999737,3.260585
106.7522,102.6241,0.6479024,0.999737,3.260585
106.8035,101.4798,0.6111045,0.999737,3.260585
106.853,99.95398,0.5287483,0.999737,3.260585
106.9022,99.95398,0.427117,0.999737,3.260585
106.9515,98.04675,0.2659093,0.999737,3.260585
107.0014,96.13953,0.1117102,0.999737,3.254126
107.0525,131.3597,-0.0004346424,0.999737,3.254126
107.1024,144.8374,-0.08629526,0.999737,3.260585
107.1525,141.7859,-0.1598902,0.999737,3.254126
107.2019,130.3425,-0.2737872,0.9999016,3.260585
107.252,123.9851,-0.3649049,0.999737,3.254126
107.3033,116.6105,-0.4875633,0.999737,3.254126
107.3527,114.5761,-0.5681674,0.999737,3.254126
107.4014,116.229,-0.7644207,0.999737,3.254126
107.452,118.3905,-0.9256285,0.9999016,3.254126
107.502,113.1774,-0.9641784,0.999737,3.254126
107.553,107.71,-0.9887098,0.999737,3.254126
107.6029,104.5313,-1.048287,0.9999016,3.254126
107.6525,102.6241,-1.141157,0.999737,3.254126
107.7019,101.4798,-1.184963,0.999737,3.254126
107.7515,100.7169,-1.304117,0.999737,3.254126
107.803,99.19109,-1.403996,0.999737,3.254126
107.853,98.80965,-1.458316,0.9995722,3.254126
107.9023,98.30104,-1.610763,0.999737,3.254126
107.9517,96.90242,-1.675597,0.999737,3.254126
108.0024,96.13953,-1.856079,0.999737,3.254126
108.0525,125.7652,-1.927922,0.9999016,3.254126
108.1031,146.3632,-1.998013,0.999737,3.254126
108.1518,137.8443,-2.034811,0.999737,3.247667
108.2024,129.071,-2.059342,0.999737,3.254126
108.2522,123.3493,-2.090883,0.999737,3.254126
108.3032,114.7032,-2.155716,0.9999016,3.247667
108.3532,114.5761,-2.139946,0.999737,3.254126
108.4017,115.339,-2.120671,0.999737,3.247667
108.4521,118.1362,-2.097892,0.999737,3.247667
108.5022,112.2874,-2.069855,0.9995722,3.247667
108.5533,107.5829,-2.052333,0.999737,3.247667
108.6034,105.1671,-2.041819,0.999737,3.247667
108.6524,104.1499,-2.022544,0.999737,3.254126
108.7024,102.6241,-1.996261,0.999737,3.247667
108.7524,101.0983,-1.991004,0.999737,3.247667
108.8036,99.95398,-1.985747,0.999737,3.247667
108.8533,99.44539,-1.983995,0.999737,3.247667
108.9018,96.90242,-2.020792,0.9999016,3.247667
108.9525,96.90242,-2.006774,0.999737,3.254126
109.002,96.90242,-2.05759,0.999737,3.247667
109.0531,118.772,-2.076865,0.999737,3.247667
109.1024,143.0574,-2.076865,0.9999016,3.247667
109.1519,140.5144,-2.07336,0.999737,3.247667
109.2017,130.3425,-2.085626,0.999737,3.247667
109.2518,126.528,-2.087378,0.9999016,3.247667
109.3024,117.3734,-2.092635,0.9999016,3.247667
109.353,114.5761,-2.062846,0.9999016,3.247667
109.4014,115.2118,-2.031306,0.9999016,3.247667
109.4518,119.662,-1.98049,0.999737,3.247667
109.5025,113.5589,-1.877107,0.9999016,3.247667
109.5534,109.6173,-1.731669,0.999737,3.247667
109.6032,106.1843,-1.60025,0.999737,3.247667
109.6515,104.5313,-1.393483,0.999737,3.247667
109.7024,104.1499,-1.167441,0.999737,3.247667
109.7522,102.497,-1.051792,0.999737,3.247667
109.8028,101.8612,-0.82575,0.9995722,3.247667
109.8525,101.2255,-0.6014603,0.999737,3.247667
109.9021,99.57254,-0.4297384,0.999737,3.247667
109.9514,99.19109,-0.3719141,0.9999016,3.247667
110.0022,97.66531,-0.3000714,0.9995722,3.241208
110.0534,116.6105,-0.2107058,0.9999016,3.247667
110.1032,148.6519,-0.1248452,0.999737,3.247667
110.1519,145.7275,-0.04774533,0.999737,3.241208
110.2023,134.4113,0.06264671,0.999737,3.247667
110.2524,130.8511,0.1274802,0.999737,3.241208
110.3032,119.0263,0.2185979,0.9999016,3.247667
110.3532,116.229,0.3622835,0.999737,3.247667
110.4023,118.1362,0.4534012,0.999737,3.241208
110.4521,122.4593,0.5077211,0.999737,3.241208
110.5015,117.3734,0.562041,0.999737,3.241208
110.553,111.1431,0.6128567,0.9999016,3.241208
110.603,108.7272,0.6461502,0.999737,3.241208
110.6522,107.2015,0.6776909,0.999737,3.241208
110.7017,106.0571,0.698718,0.999737,3.241208
110.7525,104.1499,0.7057266,0.999737,3.241208
110.8024,103.387,0.7109837,0.999737,3.241208
110.8525,102.2427,0.7127358,0.999737,3.241208
110.902,100.7169,0.6601681,0.9999016,3.241208
110.9522,100.7169,0.6023431,0.999737,3.241208
111.0022,104.5313,0.5182347,0.999737,3.241208
111.0524,143.1845,0.427117,0.9999016,3.241208
111.1025,148.0162,0.2992021,0.9999016,3.241208
111.1525,140.5144,0.1800487,0.999737,3.241208
111.2024,131.3597,0.05914241,0.999737,3.241208
111.2524,124.1122,-0.08454311,0.999737,3.241208
111.3026,117.3734,-0.2107058,0.999737,3.241208
111.3525,116.8647,-0.2965671,0.999737,3.241208
111.4025,120.6792,-0.3789234,0.9995722,3.241208
111.4524,118.8991,-0.4525183,0.999737,3.241208
111.5016,113.1774,-0.4893155,0.999737,3.234749
111.5528,111.2702,-0.5208561,0.9999016,3.241208
111.6025,107.9643,-0.5576539,0.999737,3.241208
111.6524,106.4386,-0.6259917,0.999737,3.234749
111.7023,105.2942,-0.708348,0.999737,3.234749
111.7518,104.5313,-0.7416415,0.999737,3.241208
111.8033,102.8784,-0.7836958,0.999737,3.241208
111.8528,102.2427,-0.8905835,0.999737,3.241208
111.9022,101.0983,-0.9834533,0.999737,3.241208
111.952,99.57254,-1.114873,0.999737,3.241208
112.002,111.0159,-1.209495,0.9999016,3.234749
112.0526,149.7962,-1.305869,0.999737,3.241208
112.1033,148.2705,-1.351429,0.9999016,3.234749
112.1518,137.3357,-1.416262,0.999737,3.234749
112.2018,132.3769,-1.472334,0.999737,3.234749
112.2515,123.3493,-1.53892,0.999737,3.234749
112.3036,119.662,-1.549434,0.9999016,3.241208
112.3526,119.7892,-1.549434,0.999737,3.241208
112.4018,123.9851,-1.552938,0.999737,3.234749
112.4518,117.2462,-1.549434,0.999737,3.234749
112.5024,113.4317,-1.551186,0.999737,3.241208
112.5535,111.5245,-1.545929,0.9999016,3.241208
112.6026,109.2358,-1.540673,0.999737,3.234749
112.6521,107.9643,-1.512636,0.999737,3.234749
112.7023,106.82,-1.52315,0.999737,3.234749
112.752,105.93,-1.551186,0.999737,3.234749
112.8026,104.5313,-1.575718,0.999737,3.234749
112.8536,103.387,-1.640551,0.9999016,3.241208
112.9018,102.1155,-1.665083,0.999737,3.234749
112.9526,100.3354,-1.731669,0.999737,3.241208
113.0026,121.1878,-1.840309,0.999737,3.241208
113.0528,149.9234,-1.936684,0.9999016,3.241208
113.1034,147.889,-1.969976,0.9999016,3.234749
113.1522,141.2773,-2.013783,0.999737,3.234749
113.2025,136.5728,-2.050581,0.999737,3.234749
113.2521,125.2566,-2.078617,0.999737,3.234749
113.303,121.6964,-2.082121,0.999737,3.234749
113.3528,121.6964,-2.069855,0.999737,3.234749
113.4023,125.7652,-2.055838,0.999737,3.234749
113.4521,118.1362,-2.033058,0.999737,3.234749
113.5018,115.0847,-2.010278,0.999737,3.234749
113.5528,111.906,-1.991004,0.999737,3.234749
113.6024,109.7444,-1.969976,0.9999016,3.234749
113.6523,108.4729,-1.950701,0.999737,3.234749
113.7025,107.9643,-1.88762,0.999737,3.234749
113.7527,104.4042,-1.868346,0.999737,3.234749
113.8027,104.5313,-1.822787,0.999737,3.234749
113.8526,103.8956,-1.761457,0.999737,3.234749
113.9023,103.0055,-1.782484,0.9999016,3.234749
113.9519,101.4798,-1.64756,0.999737,3.22829
114.0024,106.0571,-1.60901,0.9999016,3.234749
114.0532,141.1501,-1.486353,0.9999016,3.234749
114.1031,151.8306,-1.32164,0.9999016,3.234749
114.1525,142.1673,-1.141157,0.999737,3.234749
114.2021,137.7171,-1.030765,0.9999016,3.234749
114.2521,130.3425,-0.9133627,0.999737,3.234749
114.3028,122.205,-0.6470188,0.9999016,3.22829
114.3534,121.9507,-0.3929413,0.9999016,3.234749
114.402,122.4593,-0.2930621,0.9999016,3.22829
114.4517,122.4593,-0.1949358,0.999737,3.22829
114.5023,117.3734,-0.09330452,0.999737,3.22829
114.5535,114.5761,0.02234463,0.9999016,3.22829
114.6031,111.3974,0.1204716,0.9999016,3.22829
114.6519,109.2358,0.2203501,0.999737,3.22829
114.7018,107.9643,0.3692927,0.999737,3.22829
114.7527,107.5829,0.4604104,0.999737,3.234749
114.8032,106.4386,0.5217397,0.999737,3.22829
114.8527,104.4042,0.562041,0.9999016,3.22829
114.9024,103.387,0.5760596,0.999737,3.22829
114.9517,103.0055,0.5708025,0.999737,3.22829
115.0026,100.3354,0.5778117,0.999737,3.22829
115.0534,118.8991,0.5778117,0.9999016,3.22829
115.1025,149.5419,0.5830688,0.999737,3.22829
115.1519,147.889,0.584821,0.9999016,3.22829
115.2019,138.6072,0.5778117,0.999737,3.22829
115.2519,134.6656,0.5672982,0.9999016,3.22829
115.3029,124.1122,0.5392618,1.000066,3.22829
115.353,119.662,0.4937033,0.999737,3.22829
115.4024,120.5521,0.4288698,0.999737,3.22183
115.4521,124.4937,0.3552742,0.999737,3.22829
115.5019,119.4077,0.2518908,0.999737,3.22829
115.5537,115.8476,0.1818008,0.999737,3.22829
115.6037,110.253,0.1187195,0.999737,3.22829
115.6519,108.8544,0.04337174,0.999737,3.22829
115.7017,108.2186,-0.04424103,0.999737,3.22183
115.7524,106.5657,-0.1073224,0.999737,3.22183
115.8034,105.6757,-0.1809173,0.999737,3.22183
115.8531,104.7856,-0.2948143,0.9999016,3.22183
115.9019,103.2598,-0.3754185,0.999737,3.22183
115.9522,100.7169,-0.559406,0.999737,3.22829
116.0022,99.57254,-0.727623,0.999737,3.22829
116.0534,105.2942,-0.9256285,0.999737,3.22829
116.1037,147.5076,-0.9431513,0.9999016,3.22829
116.1522,149.1605,-1.01149,0.999737,3.22183
116.2023,140.5144,-1.050039,0.9999016,3.22183
116.2519,135.047,-1.141157,0.999737,3.22829
116.3026,125.7652,-1.223513,0.9999016,3.22183
116.3525,115.8476,-1.314631,0.999737,3.22183
116.4021,116.1019,-1.32164,0.999737,3.22183
116.4521,122.4593,-1.339162,0.9999016,3.22183
116.5024,118.5177,-1.342667,0.999737,3.22183
116.5536,113.4317,-1.342667,0.9999016,3.22183
116.6029,109.8716,-1.353181,0.999737,3.22183
116.6517,105.93,-1.367199,0.999737,3.22183
116.7025,106.3114,-1.377712,0.9999016,3.22183
116.7519,105.93,-1.377712,0.9999016,3.22183
116.8028,104.9128,-1.400491,0.999737,3.22183
116.8528,103.7684,-1.426776,0.999737,3.22183
116.9017,103.1327,-1.442546,0.9999016,3.22183
116.9522,101.8612,-1.566956,0.999737,3.22183
117.002,100.7169,-1.586231,0.999737,3.22183
117.053,100.3354,-1.729917,0.9999016,3.22183
117.1033,133.7755,-1.847318,1.000066,3.22183
117.1525,152.2121,-1.880611,0.9999016,3.22183
117.2017,147.6347,-1.913904,0.999737,3.22183
117.2524,136.9542,-1.975233,0.9999016,3.22183
117.303,133.5212,-2.029553,1.000066,3.22183
117.3528,121.315,-2.064599,0.9999016,3.22183
117.4015,120.9335,-2.062846,0.999737,3.22183
117.4524,121.4421,-2.055838,0.9999016,3.22183
117.5025,122.7136,-2.050581,0.9999016,3.22183
117.5535,117.5005,-2.027801,0.9999016,3.22183
117.6032,113.5589,-2.013783,0.999737,3.22183
117.6519,109.2358,-2.001517,0.999737,3.215371
117.7025,108.4729,-1.976986,0.9999016,3.22183
117.7522,107.5829,-1.96472,0.999737,3.22183
117.8029,105.5485,-1.952454,0.999737,3.215371
117.8529,104.9128,-1.931427,0.999737,3.215371
117.9017,104.9128,-1.917409,0.9999016,3.215371
117.9518,103.387,-1.920914,0.999737,3.215371
118.0026,99.82683,-1.922666,0.9999016,3.215371
118.0527,99.82683,-1.912152,0.9999016,3.215371
118.1023,124.2394,-1.891125,0.999737,3.215371
118.1525,152.975,-1.822787,0.999737,3.215371
118.203,150.3048,-1.72466,0.999737,3.215371
118.2518,138.9886,-1.626533,0.999737,3.215371
118.3021,134.9198,-1.537168,0.999737,3.215371
118.3521,123.9851,-1.419766,0.999737,3.215371
118.4027,120.1706,-1.253302,0.9995722,3.215371
118.4527,120.0435,-1.118377,0.9999016,3.215371
118.5026,123.6036,-1.002728,0.999737,3.215371
118.5527,120.4249,-0.8310064,0.9999016,3.215371
118.6016,113.4317,-0.5103425,0.9999016,3.215371
118.6525,110.6345,-0.3403735,0.999737,3.208912
118.7029,109.9987,-0.2632736,0.9999016,3.215371
118.7521,106.82,-0.1668994,0.9999016,3.208912
118.8016,106.0571,-0.08629526,0.999737,3.215371
118.8526,105.6757,0.02935388,0.999737,3.215371
118.9027,104.0227,0.1257281,0.9999016,3.215371
118.9526,103.0055,0.199323,0.999737,3.208912
119.0019,101.8612,0.2746707,0.999737,3.215371
119.0524,100.3354,0.3272385,0.999737,3.208912
119.1015,99.57254,0.3465135,0.999737,3.208912
119.1528,123.6036,0.3780541,0.9999016,3.208912
119.2031,152.2121,0.4095948,0.9999016,3.215371
119.2515,148.7791,0.4393833,0.999737,3.208912
119.3027,135.937,0.4656669,0.999737,3.208912
119.3524,131.4868,0.4726762,1.000066,3.215371
119.4021,121.8235,0.4674191,0.9999016,3.208912
119.453,117.6276,0.4691719,0.9999016,3.215371
119.5019,119.0263,0.470924,0.999737,3.208912
119.5519,123.6036,0.4534012,0.999737,3.208912
119.6026,118.8991,0.4218605,0.999737,3.208912
119.6524,113.9403,0.392072,0.9999016,3.208912
119.7037,110.253,0.3465135,0.9999016,3.215371
119.7518,108.7272,0.24313,0.999737,3.208912
119.8021,106.82,0.1239759,0.999737,3.208912
119.8516,105.2942,0.03811529,0.9999016,3.208912
119.9018,105.1671,-0.03022317,0.9999016,3.202453
119.9529,104.4042,-0.1265973,0.999737,3.208912
120.0022,103.0055,-0.2632736,0.999737,3.208912
120.0516,100.7169,-0.3929413,0.999737,3.208912
120.1017,101.4798,-0.5155997,0.999737,3.208912
120.1518,131.4868,-0.6592852,0.9999016,3.208912
120.2025,152.5935,-0.7907044,0.9999016,3.208912
120.2524,146.3632,-0.8572906,0.9999016,3.208912
120.3027,135.4285,-0.9308856,0.999737,3.208912
120.3527,129.1982,-0.9659305,0.999737,3.208912
120.4019,119.2806,-1.041278,0.999737,3.202453
120.4527,119.662,-1.046535,0.999737,3.208912
120.5018,120.1706,-1.053544,0.9999016,3.202453
120.5517,124.8751,-1.069314,0.999737,3.202453
120.6027,116.9919,-1.079828,0.999737,3.208912
120.6524,113.0503,-1.088589,0.999737,3.208912
120.7036,110.6345,-1.10436,0.9999016,3.202453
120.7517,107.0743,-1.12013,0.9999016,3.208912
120.8023,105.93,-1.125387,0.9999016,3.208912
120.8517,105.6757,-1.148166,0.999737,3.202453
120.9026,104.7856,-1.209495,0.999737,3.208912
120.9531,104.0227,-1.274329,0.9999016,3.208912
121.0026,102.2427,-1.405748,0.999737,3.208912
121.0524,100.5897,-1.440794,0.999737,3.202453
121.1023,100.5897,-1.572213,0.999737,3.208912
121.1517,131.1054,-1.652817,0.999737,3.202453
121.2037,152.3392,-1.721155,0.9999016,3.202453
121.252,147.6347,-1.749192,0.999737,3.202453
121.3017,138.0986,-1.831548,0.999737,3.202453
121.3522,131.8683,-1.88762,0.999737,3.202453
121.4026,119.4077,-1.954206,0.9999016,3.202453
121.4527,120.9335,-1.968224,0.999737,3.202453
121.5025,123.6036,-1.957711,0.9999016,3.202453
121.5525,123.7308,-1.938436,0.999737,3.202453
121.6017,117.119,-1.906895,0.999737,3.195994
121.6516,113.8132,-1.889373,0.9999016,3.202453
121.7035,111.3974,-1.868346,0.9999016,3.202453
121.7519,110.3802,-1.857832,0.9999016,3.195994
121.8025,107.9643,-1.821034,0.999737,3.208912
121.8519,106.4386,-1.800007,0.9999016,3.202453
121.9019,104.7856,-1.801759,0.999737,3.195994
121.9527,103.7684,-1.780732,0.9999016,3.202453
122.0026,103.0055,-1.829796,0.999737,3.202453
122.0524,101.8612,-1.761457,0.9999016,3.202453
122.1021,101.4798,-1.763209,0.999737,3.195994
122.1521,129.5796,-1.700128,0.9999016,3.195994
122.2028,151.0677,-1.584479,0.999737,3.202453
122.252,148.6519,-1.472334,0.999737,3.202453
122.3027,138.8615,-1.368951,0.9999016,3.195994
122.3527,134.2841,-1.230522,1.000066,3.202453
122.4026,123.6036,-1.137652,0.999737,3.202453
122.4531,122.0779,-1.01149,0.9999016,3.195994
122.5016,123.9851,-0.8204929,0.999737,3.195994
122.5516,125.638,-0.5331218,0.999737,3.195994
122.6026,119.4077,-0.3386213,0.9999016,3.195994
122.6521,115.0847,-0.2457514,0.999737,3.195994
122.7034,112.9231,-0.142368,0.9999016,3.195994
122.7516,110.6345,-0.06001169,0.999737,3.195994
122.8027,108.8544,0.0538853,0.9999016,3.195994
122.8517,107.5829,0.1520123,0.9999016,3.195994
122.902,106.0571,0.3272385,0.9999016,3.195994
122.9531,105.93,0.4148512,0.9999016,3.195994
123.0019,104.5313,0.4498969,0.999737,3.195994
123.0526,103.387,0.4831897,0.999737,3.195994
123.1019,101.7341,0.4989597,0.999737,3.195994
123.1526,114.5761,0.5287483,0.999737,3.195994
123.2037,151.8306,0.565546,0.9999016,3.195994
123.2527,147.7619,0.584821,0.9999016,3.195994
123.3026,139.1158,0.6040959,0.9999016,3.195994
123.3523,133.9027,0.6321317,0.9999016,3.195994
123.4023,122.205,0.6496545,0.9999016,3.195994
123.4533,120.4249,0.6654245,0.9999016,3.195994
123.5021,121.4421,0.6724337,0.9999016,3.189535
123.5528,125.7652,0.6811951,0.999737,3.195994
123.6022,118.5177,0.6882044,0.999737,3.195994
123.6519,115.0847,0.6864523,0.9999016,3.189535
123.7027,111.7788,0.6741859,0.9999016,3.195994
123.7526,110.6345,0.6408931,0.999737,3.189535
123.8026,107.2015,0.6040959,0.999737,3.195994
123.8519,107.2015,0.5550325,0.999737,3.189535
123.9025,106.6929,0.4972076,1.000066,3.195994
123.9535,104.4042,0.4078426,0.9999016,3.189535
124.0017,103.0055,0.2291115,0.999737,3.195994
124.0527,101.7341,0.08192167,0.999737,3.189535
124.1019,104.9128,-0.04424103,0.9999016,3.195994
124.1516,144.456,-0.1213409,0.999737,3.189535
124.2038,149.5419,-0.2492557,0.999737,3.189535
124.2519,141.2773,-0.3298599,0.999737,3.189535
124.3021,134.9198,-0.4209777,0.999737,3.189535
124.352,125.2566,-0.5611582,0.999737,3.189535
124.4024,121.315,-0.7661729,0.999737,3.189535
124.4527,121.315,-0.8450249,0.9999016,3.189535
124.5023,121.6964,-0.9676827,0.9999016,3.189535
124.552,118.8991,-1.053544,0.999737,3.183075
124.6019,114.5761,-1.118377,0.9999016,3.189535
124.6525,111.7788,-1.163936,0.9999016,3.189535
124.7033,109.1087,-1.209495,0.9999016,3.189535
124.7517,107.2015,-1.237532,0.9999016,3.189535
124.8026,106.3114,-1.332154,0.999737,3.189535
124.8517,105.1671,-1.418014,0.999737,3.189535
124.9028,104.4042,-1.503875,0.9999016,3.189535
124.9536,103.7684,-1.656322,0.9999016,3.189535
125.002,103.0055,-1.842062,0.999737,3.189535
125.0518,100.3354,-1.999765,0.999737,3.189535
125.1026,134.2841,-2.182,0.9999016,3.189535
125.1525,151.4492,-2.364235,0.9999016,3.189535
125.2034,148.6519,-2.441335,0.9999016,3.189535
125.2525,141.6587,-2.455353,0.999737,3.189535
125.3026,136.9542,-2.479885,0.999737,3.189535
125.3522,124.1122,-2.511425,0.9999016,3.189535
125.4022,121.4421,-2.513178,0.9999016,3.189535
125.4533,121.315,-2.490398,0.999737,3.189535
125.5024,124.4937,-2.472876,0.9999016,3.183075
125.5524,118.5177,-2.446591,0.9999016,3.189535
125.6023,113.4317,-2.353722,0.999737,3.189535
125.6521,111.1431,-2.267861,0.999737,3.189535
125.703,109.9987,-2.238072,0.9999016,3.189535
125.7518,109.1087,-2.210037,0.999737,3.189535
125.8023,105.93,-2.157468,0.999737,3.189535
125.8521,105.93,-2.155716,0.999737,3.183075
125.9021,104.5313,-2.159221,0.999737,3.189535
125.9531,102.8784,-2.141698,0.9999016,3.189535
126.002,100.9712,-2.203027,0.999737,3.183075
126.0519,99.82683,-2.176743,0.9999016,3.183075
126.1026,100.5897,-2.232816,0.9999016,3.189535
