t_sec,abp_mmHg,resp_arbunit,spo2_unitless,scon_muS
0,102.497,0.6553498,0.9798071,3.745023
0.04864551,100.4626,0.7126192,0.9798071,3.738563
0.09866086,97.9196,0.762729,0.9798071,3.738563
0.1496162,96.13953,0.8235775,0.9798071,3.738563
0.1993427,93.2151,0.9202195,0.9798071,3.738563
0.2497574,91.18073,1.020439,0.9799718,3.738563
0.2984914,88.89205,1.070551,0.9799718,3.738563
0.3489679,87.62056,1.120662,0.9799718,3.738563
0.4000223,85.33189,1.142136,0.9796425,3.738563
0.4496048,83.04321,1.138556,0.9796425,3.738563
0.5002462,86.34908,1.142136,0.9798071,3.738563
0.5488802,134.2841,1.160033,0.9799718,3.732104
0.5987727,136.5728,1.17793,0.9798071,3.732104
0.649607,129.9611,1.213723,0.9799718,3.732104
0.698773,126.9095,1.242356,0.9796425,3.732104
0.7497407,122.5864,1.256675,0.9798071,3.732104
0.7993983,116.9919,1.285308,0.9798071,3.732104
0.8491468,116.9919,1.306785,0.9798071,3.732104
0.8999211,116.8647,1.285308,0.9798071,3.732104
0.9493949,108.0915,1.27815,0.9798071,3.725645
0.9998872,105.5485,1.256675,0.9798071,3.725645
1.049002,99.95398,1.235198,0.9798071,3.725645
1.098604,98.1739,1.199404,0.9799718,3.725645
1.149493,96.90242,1.167191,0.9798071,3.732104
1.19875,95.12233,1.138556,0.9796425,3.732104
1.249514,92.32506,1.102764,0.9798071,3.732104
1.299091,90.79928,1.059812,0.9798071,3.732104
1.349001,87.62056,1.020439,0.9796425,3.725645
1.400164,87.23911,0.9989635,0.9798071,3.725645
1.448776,83.67896,0.8486325,0.9799718,3.725645
1.499604,81.00883,0.6875643,0.9798071,3.725645
1.549127,83.67896,0.6052399,0.9798071,3.725645
1.599605,147.889,0.5766045,0.9798071,3.725645
1.649915,147.2533,0.5300738,0.9798071,3.725645
1.699135,127.7995,0.4549089,0.9799718,3.725645
1.749709,125.638,0.4012186,0.9799718,3.725645
1.799374,121.1878,0.3511087,0.9798071,3.725645
1.848837,115.0847,0.3367911,0.9796425,3.719186
1.900244,115.0847,0.3153152,0.9799718,3.725645
1.948913,113.8132,0.2795217,0.9799718,3.719186
1.999892,106.4386,0.2329909,0.9798071,3.725645
2.049589,103.387,0.1685633,0.9798071,3.719186
2.099369,100.3354,0.09339718,0.9798071,3.719186
2.150608,97.15671,0.04328729,0.9798071,3.719186
2.1986,96.77527,-0.03187754,0.9796425,3.719186
2.250645,93.85085,-0.06409198,0.9796425,3.719186
2.299552,91.81647,-0.1428372,0.9798071,3.719186
2.349637,88.38345,-0.2394779,0.9798071,3.719186
2.399598,87.11198,-0.3289617,0.9798071,3.719186
2.449165,87.23911,-0.3182231,0.9798071,3.712727
2.500545,82.78893,-0.4112847,0.9799718,3.719186
2.549553,81.00883,-0.5580366,0.9798071,3.712727
2.599161,86.98483,-0.7047885,0.9798071,3.712727
2.649492,111.1431,-0.7692161,0.9798071,3.712727
2.699337,138.0986,-0.7906919,0.9798071,3.712727
2.750001,132.6312,-0.8014305,0.9798071,3.712727
2.798523,130.5968,-0.7978514,0.9796425,3.712727
2.849641,129.5796,-0.7548997,0.9798071,3.712727
2.900013,119.7892,-0.6833127,0.9798071,3.712727
2.949046,119.2806,-0.5759334,0.9796425,3.706268
3.000683,117.7548,-0.4506573,0.9798071,3.706268
3.049091,108.8544,-0.2752714,0.9798071,3.706268
3.099233,107.5829,-0.0569338,0.9796425,3.706268
3.15049,103.2598,0.1685633,0.9798071,3.706268
3.199687,99.44539,0.3188943,0.9798071,3.706268
3.25024,98.1739,0.4191154,0.9796425,3.706268
3.299361,95.37663,0.5229156,0.9798071,3.706268
3.349364,93.46941,0.608819,0.9799718,3.706268
3.400382,90.29069,0.662508,0.9798071,3.699808
3.449393,89.14634,0.7090401,0.9798071,3.706268
3.499966,85.58618,0.7663081,0.9798071,3.706268
3.548673,85.58618,0.8164194,0.9796425,3.699808
3.5996,82.53461,0.8271566,0.9798071,3.699808
3.650487,79.86449,0.8164194,0.9798071,3.699808
3.699485,109.1087,0.8522115,0.9799718,3.706268
3.749574,150.6863,0.9023228,0.9798071,3.699808
3.798933,136.9542,0.9452745,0.9798071,3.699808
3.848729,131.4868,1.01686,0.9798071,3.699808
3.899647,127.1638,1.07413,0.9798071,3.699808
3.948722,125.2566,1.113501,0.9798071,3.699808
4.000718,117.2462,1.17793,0.9799718,3.699808
4.048528,116.8647,1.270991,0.9798071,3.699808
4.099234,116.8647,1.338998,0.9798071,3.693349
4.149556,109.4901,1.378372,0.9798071,3.699808
4.199392,105.5485,1.374792,0.9798071,3.693349
4.250237,101.8612,1.338998,0.9798071,3.693349
4.298746,100.7169,1.303205,0.9798071,3.693349
4.348531,97.28386,1.292469,0.9798071,3.693349
4.399607,96.90242,1.256675,0.9798071,3.693349
4.449008,92.96081,1.210143,0.9798071,3.693349
4.500151,90.92643,1.134978,0.9798071,3.693349
4.54873,87.49342,1.056233,0.9798071,3.68689
4.599107,85.58618,0.9810667,0.9798071,3.693349
4.650631,85.96764,0.9166391,0.9798071,3.693349
4.699364,82.28033,0.7161983,0.9798071,3.693349
4.750656,80.24594,0.5730255,0.9798071,3.693349
4.799192,87.49342,0.4477494,0.9796425,3.68689
4.849366,135.6828,0.386901,0.9798071,3.68689
4.900151,136.5728,0.3511087,0.9799718,3.68689
4.948648,128.4353,0.3045766,0.9796425,3.68689
5.000086,125.638,0.211515,0.9798071,3.693349
5.04911,123.3493,0.09697758,0.9798071,3.68689
5.098778,117.3734,0.02181143,0.9796425,3.68689
5.150376,116.9919,-0.06051289,0.9799718,3.68689
5.198705,116.6105,-0.1249405,0.9798071,3.68689
5.24958,107.5829,-0.1786294,0.9799718,3.68689
5.29917,103.0055,-0.2287406,0.9798071,3.680431
5.349603,99.95398,-0.2824296,0.9798071,3.68689
5.400329,98.80965,-0.3361199,0.9798071,3.68689
5.448605,95.88522,-0.3826507,0.9798071,3.680431
5.500353,93.72369,-0.4148651,0.9798071,3.680431
5.548964,91.81647,-0.4256024,0.9798071,3.680431
5.598974,88.63776,-0.4542364,0.9798071,3.680431
5.649644,88.38345,-0.5043476,0.9798071,3.680431
5.698873,85.58618,-0.4828718,0.9799718,3.680431
5.750101,84.82329,-0.4685541,0.9798071,3.680431
5.798747,81.26313,-0.5508785,0.9796425,3.680431
5.8496,80.11879,-0.6940513,0.9798071,3.680431
5.899685,89.40065,-0.765637,0.9798071,3.680431
5.949347,150.3048,-0.7835338,0.9798071,3.680431
6.000643,133.9027,-0.7727965,0.9798071,3.680431
6.049145,130.0882,-0.7620579,0.9798071,3.680431
6.099118,128.4353,-0.7012094,0.9798071,3.680431
6.150116,122.7136,-0.6224642,0.9798071,3.68689
6.199571,118.6448,-0.4721332,0.9796425,3.68689
6.2501,117.7548,-0.311065,0.9798071,3.68689
6.298918,113.0503,-0.1714713,0.9796425,3.68689
6.349548,107.3286,-0.006822597,0.9799718,3.693349
6.400375,104.4042,0.2079359,0.9798071,3.699808
6.448866,100.4626,0.3117361,0.9798071,3.699808
6.500144,98.04675,0.3761637,0.9798071,3.706268
6.548893,96.26666,0.4549089,0.9798071,3.712727
6.598891,94.2323,0.5336528,0.9798071,3.712727
6.649929,93.08795,0.6052399,0.9798071,3.725645
6.699393,89.14634,0.6410321,0.9798071,3.725645
6.750553,87.23911,0.6804047,0.9799718,3.725645
6.799127,86.22193,0.734095,0.9798071,3.738563
6.84864,84.569,0.7663081,0.9798071,3.745023
6.899857,81.89888,0.7770467,0.9799718,3.751482
6.948842,79.48306,0.787784,0.9798071,3.757941
6.999952,103.5141,0.8772678,0.9798071,3.770859
7.049512,151.1949,0.9739085,0.9798071,3.777318
7.099382,134.6656,1.027599,0.9798071,3.777318
7.150635,127.4181,1.066971,0.9798071,3.783778
7.199389,125.7652,1.095605,0.9796425,3.796696
7.250432,123.7308,1.124239,0.9798071,3.803155
7.298676,120.6792,1.160033,0.9798071,3.809614
7.34908,119.4077,1.202985,0.9798071,3.816073
7.400341,116.7376,1.217301,0.9798071,3.822533
7.44905,109.1087,1.199404,0.9798071,3.828992
7.500707,106.5657,1.160033,0.9799718,3.84191
7.549338,102.3698,1.117081,0.9798071,3.848369
7.599614,100.9712,1.077709,0.9796425,3.861288
7.649697,100.4626,1.070551,0.9798071,3.867747
7.699226,97.41101,1.095605,0.9798071,3.867747
7.750339,93.2151,1.084867,0.9798071,3.880665
7.799075,92.7065,1.056233,0.9796425,3.887124
7.849585,90.03638,1.031178,0.9798071,3.893583
7.900347,88.7649,0.9774876,0.9798071,3.900043
7.948846,85.07759,0.8199984,0.9798071,3.912961
8.000086,85.07759,0.6732466,0.9798071,3.912961
8.048712,115.7204,0.608819,0.9798071,3.925879
8.099379,150.432,0.5766045,0.9798071,3.932338
8.149969,133.1398,0.4942802,0.9798071,3.932338
8.198896,128.4353,0.361846,0.9798071,3.938797
8.249836,127.2909,0.2938394,0.9798071,3.945257
8.299335,122.3321,0.2437295,0.9798071,3.951716
8.349062,120.0435,0.1971973,0.9798071,3.951716
8.39956,119.0263,0.1184534,0.9798071,3.958175
8.449355,115.4661,0.01823235,0.9798071,3.964634
8.50075,107.9643,-0.1177823,0.9798071,3.971093
8.549502,104.0227,-0.2287406,0.9798071,3.971093
8.599504,102.3698,-0.314644,0.9798071,3.977553
8.650747,99.57254,-0.3719134,0.9798071,3.984012
8.699217,97.9196,-0.4005475,0.9799718,3.984012
8.750061,96.39381,-0.4721332,0.9798071,3.99693
8.798745,93.34225,-0.6510996,0.9798071,3.99693
8.848992,91.68932,-0.7727965,0.9798071,4.003389
8.899707,91.05358,-0.7906919,0.9798071,4.003389
8.949165,88.63776,-0.8479613,0.9798071,4.009848
9.000214,84.18755,-1.048404,0.9796425,4.009848
9.049044,89.78209,-1.256003,0.9798071,4.016308
9.099363,136.0642,-1.266741,0.9798071,4.016308
9.150375,151.322,-1.187996,0.9796425,4.022767
9.199751,136.5728,-1.005452,0.9796425,4.029226
9.250055,134.9198,-0.7978514,0.9798071,4.029226
9.299386,133.0126,-0.615306,0.9796425,4.029226
9.348723,121.5692,-0.4721332,0.9798071,4.029226
9.40065,120.5521,-0.2824296,0.9796425,4.035685
9.449376,120.6792,-0.1034646,0.9796425,4.042144
9.499679,117.2462,0.114873,0.9799718,4.042144
9.549334,108.2186,0.2580458,0.9798071,4.048604
9.598827,106.4386,0.3582669,0.9798071,4.048604
9.650331,105.6757,0.4728044,0.9798071,4.055062
9.698623,103.1327,0.5622882,0.9798071,4.055062
9.750089,100.844,0.6302949,0.9798071,4.055062
9.798623,97.9196,0.6875643,0.9796425,4.055062
9.848765,95.88522,0.7269355,0.9798071,4.061522
9.900625,93.08795,0.7842049,0.9799718,4.067981
9.949345,92.83366,0.9059018,0.9798071,4.067981
10.0006,90.41783,0.9846471,0.9796425,4.07444
10.04904,86.22193,0.9774876,0.9798071,4.07444
10.09974,94.35944,1.013281,0.9798071,4.07444
10.14962,139.4972,1.049075,0.9798071,4.080899
10.19974,147.6347,1.070551,0.9796425,4.087358
10.24962,135.3013,1.102764,0.9798071,4.087358
10.29968,131.3597,1.134978,0.9799718,4.087358
10.34908,131.614,1.156453,0.9798071,4.087358
10.40049,122.9679,1.156453,0.9798071,4.093818
10.44887,122.3321,1.145717,0.9798071,4.093818
10.5003,122.5864,1.12782,0.9799718,4.100276
10.54887,116.3562,1.092026,0.9798071,4.100276
10.59919,109.7444,1.056233,0.9796425,4.100276
10.64993,108.2186,1.01686,0.9798071,4.106736
10.69901,105.4214,0.9846471,0.9798071,4.106736
10.75036,103.5141,0.9452745,0.9798071,4.106736
10.79949,100.4626,0.8701083,0.9796425,4.106736
10.84915,98.55534,0.7484114,0.9798071,4.113195
10.90049,95.75809,0.637453,0.9798071,4.113195
10.94886,95.12233,0.583764,0.9798071,4.113195
10.99986,91.94361,0.5264947,0.9796425,4.119654
11.04974,89.0192,0.39048,0.9798071,4.119654
11.09934,89.0192,0.3009975,0.9798071,4.119654
11.15068,118.5177,0.2294118,0.9798071,4.119654
11.19934,148.0162,0.1793006,0.9798071,4.119654
11.25071,135.8099,0.08265991,0.9798071,4.126113
11.29918,133.7755,0.02539052,0.9798071,4.119654
11.34914,132.8855,-0.08198874,0.9799718,4.119654
11.39992,122.5864,-0.160734,0.9798071,4.119654
11.44934,121.8235,-0.2108439,0.9799718,4.126113
11.50053,120.9335,-0.2752714,0.9798071,4.119654
11.54899,115.0847,-0.3504376,0.9798071,4.119654
11.59933,110.7616,-0.4041266,0.9798071,4.126113
11.64948,107.3286,-0.4399201,0.9798071,4.119654
11.70013,103.387,-0.5079268,0.9798071,4.126113
11.74917,101.9884,-0.5723543,0.9799718,4.119654
11.79903,99.57254,-0.6009883,0.9796425,4.126113
11.84932,98.30104,-0.6654159,0.9798071,4.126113
11.89916,95.50377,-0.7620579,0.9798071,4.126113
11.94967,93.978,-0.8085887,0.9798071,4.126113
11.99899,92.32506,-0.7763756,0.9798071,4.119654
12.04954,88.89205,-0.8765953,0.9796425,4.126113
12.09973,86.60338,-1.098513,0.9799718,4.119654
12.1492,93.2151,-1.266741,0.9796425,4.119654
12.20034,138.8615,-1.291796,0.9798071,4.126113
12.24904,149.0334,-1.291796,0.9798071,4.119654
12.29886,136.4456,-1.291796,0.9798071,4.113195
12.34929,136.1913,-1.298954,0.9796425,4.113195
12.39921,133.2669,-1.298954,0.9798071,4.113195
12.45015,124.1122,-1.27032,0.9798071,4.113195
12.49957,123.6036,-1.198735,0.9799718,4.113195
12.54885,122.9679,-1.055562,0.9798071,4.106736
12.59883,113.9403,-0.8944921,0.9796425,4.106736
12.64985,112.796,-0.6904721,0.9798071,4.106736
12.70045,104.5313,-0.5186653,0.9798071,4.106736
12.74954,102.6241,-0.3719134,0.9798071,4.106736
12.79927,101.6069,-0.214423,0.9796425,4.106736
12.84897,99.82683,-0.02114027,0.9798071,4.100276
12.89941,96.39381,0.1614051,0.9798071,4.100276
12.9503,95.50377,0.2759426,0.9798071,4.100276
12.99984,91.94361,0.3546878,0.9796425,4.100276
13.04905,91.43503,0.4728044,0.9798071,4.100276
13.09873,88.12916,0.512177,0.9796425,4.100276
13.14872,85.45904,0.5300738,0.9798071,4.093818
13.20073,89.2735,0.5551287,0.9798071,4.093818
13.2498,150.0505,0.6052399,0.9798071,4.093818
13.29968,141.5316,0.6517707,0.9799718,4.087358
13.34881,134.7927,0.6947224,0.9798071,4.087358
13.39981,132.7583,0.734095,0.9798071,4.087358
13.44968,132.2497,0.762729,0.9798071,4.080899
13.49955,121.5692,0.855792,0.9798071,4.080899
13.54967,121.1878,0.9452745,0.9798071,4.080899
13.59944,121.8235,1.009702,0.9796425,4.07444
13.64957,116.1019,1.052654,0.9798071,4.07444
13.70068,110.8888,1.092026,0.9799718,4.07444
13.74883,107.0743,1.113501,0.9798071,4.067981
13.79941,104.6585,1.131398,0.9796425,4.067981
13.84926,103.387,1.131398,0.9798071,4.067981
13.89955,101.2255,1.12782,0.9798071,4.061522
13.95033,99.82683,1.099185,0.9798071,4.067981
13.99952,97.02956,1.052654,0.9798071,4.061522
14.04955,95.24948,1.027599,0.9796425,4.061522
14.0996,93.72369,1.002542,0.9798071,4.061522
14.14932,90.03638,0.8486325,0.9798071,4.055062
14.2001,86.85767,0.6911433,0.9798071,4.055062
14.24941,100.5897,0.6123981,0.9798071,4.055062
14.29934,148.5248,0.5730255,0.9798071,4.048604
14.34867,147.2533,0.5336528,0.9798071,4.048604
14.3987,130.4697,0.458488,0.9798071,4.048604
14.45084,129.9611,0.3725846,0.9798071,4.042144
14.49952,124.1122,0.308157,0.9799718,4.035685
14.54942,119.0263,0.2902603,0.9798071,4.042144
14.59896,119.4077,0.2580458,0.9796425,4.035685
14.64903,119.9163,0.2258327,0.9798071,4.035685
14.70084,110.1259,0.1649842,0.9798071,4.035685
14.74924,105.6757,0.08981808,0.9798071,4.029226
14.79984,103.8956,0.03612911,0.9798071,4.029226
14.8498,101.6069,-0.0497743,0.9798071,4.022767
14.89984,99.82683,-0.09630642,0.9799718,4.022767
14.94976,97.28386,-0.1249405,0.9798071,4.022767
14.99871,95.37663,-0.1929471,0.9796425,4.016308
15.04984,93.34225,-0.3003264,0.9798071,4.016308
15.09939,90.79928,-0.3611749,0.9798071,4.009848
15.14902,89.78209,-0.3540167,0.9799718,4.009848
15.20084,87.62056,-0.4506573,0.9798071,4.009848
15.24892,84.0604,-0.6117269,0.9798071,4.009848
15.29976,87.11198,-0.740582,0.9801366,4.009848
15.34926,131.3597,-0.8085887,0.9798071,4.003389
15.39972,145.4732,-0.8408031,0.9796425,3.99693
15.45054,134.9198,-0.8837548,0.9798071,4.003389
15.49926,134.4113,-0.9123889,0.9798071,3.990471
15.54914,134.6656,-0.9410242,0.9798071,3.990471
15.59969,122.7136,-0.9517615,0.9798071,3.984012
15.64953,121.4421,-0.9481824,0.9796425,3.984012
15.70084,121.0607,-0.9446033,0.9798071,3.984012
15.7491,115.9747,-0.9446033,0.9798071,3.984012
15.79984,109.4901,-0.9374438,0.9798071,3.977553
15.84991,104.5313,-0.9267066,0.9798071,3.977553
15.8993,102.7513,-0.9088098,0.9796425,3.977553
15.95051,101.3526,-0.8658581,0.9798071,3.971093
15.99984,97.9196,-0.8121678,0.9798071,3.971093
16.04942,95.75809,-0.6725754,0.9796425,3.964634
16.09946,92.96081,-0.5401412,0.9798071,3.964634
16.14916,90.41783,-0.4578168,0.9798071,3.958175
16.19983,89.90925,-0.2788505,0.9798071,3.958175
16.24966,87.74771,-0.08914693,0.9796425,3.958175
16.29969,84.95044,-0.01756118,0.9799718,3.958175
16.34891,82.78893,0.06476314,0.9798071,3.951716
16.3999,105.4214,0.1542456,0.9798071,3.951716
16.44979,151.4492,0.2687844,0.9798071,3.951716
16.49946,140.0058,0.3439492,0.9799718,3.945257
16.54899,133.6484,0.4298527,0.9798071,3.945257
16.59952,132.7583,0.5014397,0.9798071,3.938797
16.64968,132.8855,0.5551287,0.9796425,3.938797
16.69999,120.4249,0.6052399,0.9798071,3.938797
16.74949,120.2978,0.6517707,0.9798071,3.938797
16.79967,120.6792,0.7126192,0.9798071,3.932338
16.84878,113.3046,0.7448323,0.9798071,3.925879
16.89917,107.3286,0.7842049,0.9798071,3.925879
16.95014,103.5141,0.8450534,0.9798071,3.932338
16.99954,102.2427,0.9023228,0.9798071,3.932338
17.04938,100.9712,0.9810667,0.9798071,3.932338
17.09879,99.06393,1.045496,0.9798071,3.925879
17.14951,96.64812,1.07413,0.9798071,3.925879
17.20064,93.2151,1.092026,0.9799718,3.925879
17.24899,91.94361,1.113501,0.9798071,3.925879
17.29919,91.81647,1.152875,0.9798071,3.91942
17.34891,86.98483,1.109923,0.9798071,3.91942
17.39976,85.96764,1.01686,0.9798071,3.91942
17.44991,90.03638,0.9703294,0.9798071,3.91942
17.49976,139.1158,0.8915842,0.9799718,3.912961
17.54992,138.7343,0.8235775,0.9798071,3.912961
17.59946,128.8167,0.7949435,0.9798071,3.912961
17.64928,127.4181,0.7519918,0.9798071,3.906502
17.70056,117.6276,0.7233564,0.9798071,3.906502
17.74916,116.7376,0.6839838,0.9799718,3.906502
17.79996,118.5177,0.6446125,0.9798071,3.900043
17.84903,118.6448,0.6267158,0.9796425,3.906502
17.89928,106.5657,0.6123981,0.9798071,3.900043
17.95,105.1671,0.5909222,0.9798071,3.900043
17.99932,101.8612,0.5694464,0.9798071,3.900043
18.04903,100.844,0.5515496,0.9798071,3.900043
18.09907,98.9368,0.5336528,0.9798071,3.893583
18.14974,96.26666,0.5193365,0.9798071,3.893583
18.20024,93.46941,0.458488,0.9798071,3.893583
18.24956,91.18073,0.3690042,0.9798071,3.893583
18.29961,90.54498,0.3511087,0.9798071,3.893583
18.34955,88.5106,0.3403701,0.9798071,3.893583
18.39906,85.33189,0.2437295,0.9796425,3.893583
18.45003,83.80611,0.08265991,0.9798071,3.893583
18.49966,116.8647,-0.03545795,0.9798071,3.887124
18.54929,152.7207,-0.1070437,0.9798071,3.887124
18.5995,140.1329,-0.1678922,0.9796425,3.887124
18.64904,134.6656,-0.2215811,0.9798071,3.887124
18.7003,131.9954,-0.2895891,0.9796425,3.887124
18.74891,128.0538,-0.3361199,0.9798071,3.887124
18.79986,121.4421,-0.3504376,0.9798071,3.887124
18.84962,120.4249,-0.3826507,0.9796425,3.887124
18.89956,120.0435,-0.4005475,0.9798071,3.880665
18.95077,109.8716,-0.4148651,0.9798071,3.880665
18.99956,106.5657,-0.4327606,0.9798071,3.880665
19.04878,104.277,-0.4685541,0.9798071,3.880665
19.09992,102.3698,-0.5150849,0.9798071,3.880665
19.14992,100.4626,-0.5329817,0.9798071,3.880665
19.19995,97.66531,-0.5329817,0.9796425,3.880665
19.24937,95.50377,-0.5902511,0.9798071,3.880665
19.29941,92.83366,-0.6689963,0.9798071,3.880665
19.34902,91.56216,-0.6654159,0.9798071,3.880665
19.39902,90.29069,-0.5830929,0.9798071,3.880665
19.45077,85.71333,-0.615306,0.9798071,3.880665
19.49944,84.82329,-0.6654159,0.9798071,3.880665
19.54927,91.30788,-0.6725754,0.9798071,3.880665
19.59986,153.1021,-0.5830929,0.9799718,3.880665
19.6499,151.0677,-0.4721332,0.9798071,3.880665
19.70048,135.3013,-0.3432781,0.9796425,3.880665
19.74902,136.5728,-0.2215811,0.9798071,3.874206
19.79915,129.3253,-0.05335471,0.9799718,3.874206
19.84935,123.6036,0.1470875,0.9798071,3.874206
19.89974,122.9679,0.2723635,0.9798071,3.880665
19.95091,120.5521,0.3690042,0.9798071,3.874206
19.99957,114.3218,0.4620671,0.9798071,3.874206
20.04885,108.8544,0.5408123,0.9798071,3.880665
20.09989,106.5657,0.6052399,0.9798071,3.874206
20.149,104.9128,0.6446125,0.9798071,3.867747
20.19991,102.497,0.7054597,0.9798071,3.867747
20.2494,100.2083,0.7484114,0.9796425,3.867747
20.29939,97.9196,0.7806258,0.9799718,3.867747
20.34937,95.63092,0.8128389,0.9798071,3.867747
20.39914,92.96081,0.8987437,0.9798071,3.867747
20.4509,91.68932,0.9882262,0.9798071,3.867747
20.49926,88.63776,0.9989635,0.9799718,3.867747
20.54877,85.33189,0.9774876,0.9798071,3.867747
20.59992,85.71333,1.006123,0.9799718,3.867747
20.64949,100.7169,1.041915,0.9796425,3.867747
20.70028,136.1913,1.077709,0.9798071,3.867747
20.74985,132.7583,1.102764,0.9799718,3.861288
20.79977,130.8511,1.120662,0.9798071,3.861288
20.84899,128.181,1.12782,0.9798071,3.861288
20.8999,119.9163,1.12782,0.9798071,3.861288
20.95102,119.7892,1.12782,0.9796425,3.861288
20.99929,120.5521,1.120662,0.9798071,3.861288
21.04888,112.1602,1.102764,0.9798071,3.861288
21.09972,107.8372,1.081288,0.9798071,3.854828
21.14965,105.5485,1.049075,0.9798071,3.854828
21.20062,103.0055,1.027599,0.9796425,3.854828
21.24949,102.3698,1.006123,0.9798071,3.854828
21.29952,98.9368,0.9774876,0.9799718,3.854828
21.34922,97.28386,0.8987437,0.9798071,3.848369
21.39913,95.37663,0.7985226,0.9798071,3.854828
21.45052,93.08795,0.7555709,0.9798071,3.848369
21.49951,91.05358,0.734095,0.9799718,3.848369
21.54898,87.87486,0.6231366,0.9798071,3.848369
21.59901,85.71333,0.5229156,0.9796425,3.848369
21.65,89.0192,0.4119572,0.9796425,3.848369
21.70101,151.5763,0.3833219,0.9798071,3.848369
21.74921,138.8615,0.3582669,0.9798071,3.84191
21.79956,132.6312,0.3224734,0.9796425,3.848369
21.84936,131.9954,0.2616249,0.9796425,3.84191
21.89904,124.2394,0.2007778,0.9798071,3.84191
21.95009,120.5521,0.1256116,0.9798071,3.84191
22.00001,120.1706,0.06476314,0.9798071,3.84191
22.05,119.9163,-0.0139821,0.9799718,3.84191
22.09931,110.5073,-0.08914693,0.9798071,3.835451
22.1493,107.3286,-0.1678922,0.9798071,3.84191
22.20056,103.5141,-0.2502165,0.9798071,3.835451
22.24912,102.2427,-0.314644,0.9796425,3.835451
22.29986,100.7169,-0.3790716,0.9799718,3.828992
22.3493,97.41101,-0.4041266,0.9798071,3.828992
22.3993,94.86804,-0.4578168,0.9796425,3.828992
22.45038,92.19792,-0.5830929,0.9798071,3.835451
22.49953,91.18073,-0.6475204,0.9799718,3.828992
22.54922,90.29069,-0.6296237,0.9798071,3.828992
22.59898,86.98483,-0.6940513,0.9796425,3.828992
22.64958,85.45904,-0.8801758,0.9798071,3.822533
22.70078,84.18755,-1.112831,0.9798071,3.822533
22.74955,153.1021,-1.180838,0.9798071,3.822533
22.79901,142.5488,-1.195155,0.9798071,3.822533
22.84905,136.8271,-1.22021,0.9798071,3.822533
22.89979,134.9198,-1.259583,0.9798071,3.822533
22.95095,130.8511,-1.27032,0.9798071,3.822533
22.99988,123.9851,-1.252423,0.9798071,3.816073
23.04977,123.4765,-1.187996,0.9798071,3.816073
23.0995,122.5864,-1.080617,0.9799718,3.816073
23.14899,114.5761,-0.9481824,0.9798071,3.816073
23.20089,107.2015,-0.7513206,0.9798071,3.816073
23.24922,105.0399,-0.5651961,0.9796425,3.816073
23.29901,103.8956,-0.4184442,0.9798071,3.809614
23.34901,100.4626,-0.2681133,0.9798071,3.809614
23.39897,99.06393,-0.1070437,0.9798071,3.809614
23.45065,95.37663,0.1220325,0.9798071,3.809614
23.49978,93.46941,0.2652053,0.9798071,3.809614
23.5498,90.16354,0.3403701,0.9798071,3.803155
23.59946,89.14634,0.4262736,0.9798071,3.803155
23.64999,89.14634,0.5229156,0.9798071,3.809614
23.70048,85.33189,0.5515496,0.9799718,3.803155
23.74897,82.53461,0.5587078,0.9798071,3.809614
23.79983,93.08795,0.5945013,0.9799718,3.803155
23.84937,136.6999,0.6517707,0.9798071,3.803155
23.89898,136.1913,0.7018806,0.9799718,3.803155
23.94998,134.4113,0.734095,0.9798071,3.796696
23.99975,131.9954,0.762729,0.9796425,3.796696
24.04922,128.0538,0.8092598,0.9798071,3.796696
24.09971,119.4077,0.8951632,0.9798071,3.796696
24.14985,120.2978,0.9846471,0.9798071,3.796696
24.19987,120.5521,1.041915,0.9799718,3.796696
24.24886,109.363,1.077709,0.9798071,3.796696
24.29955,106.5657,1.117081,0.9798071,3.796696
24.34966,103.8956,1.142136,0.9798071,3.790237
24.40101,102.3698,1.170772,0.9699246,3.790237
24.45086,100.5897,1.202985,0.9695953,3.796696
24.49937,98.1739,1.213723,0.9699246,3.790237
24.54997,94.2323,1.206565,0.9697599,3.790237
24.59965,93.08795,1.181508,0.9699246,3.790237
24.64994,92.32506,1.145717,0.9697599,3.790237
24.70036,89.14634,1.138556,0.9697599,3.783778
24.7495,85.96764,1.084867,0.9699246,3.790237
24.79913,84.95044,0.9882262,0.9697599,3.783778
24.8489,101.2255,0.884426,0.9697599,3.790237
24.89999,150.5591,0.8128389,0.9697599,3.790237
24.95,147.3804,0.7698872,0.9699246,3.790237
24.99998,130.3425,0.7233564,0.9697599,3.790237
25.04957,128.5624,0.6732466,0.9697599,3.783778
25.09884,126.6552,0.6338739,0.9699246,3.783778
25.15099,116.7376,0.6159772,0.9697599,3.783778
25.20093,116.8647,0.5945013,0.9697599,3.783778
25.24974,117.7548,0.583764,0.9697599,3.777318
25.29946,108.6001,0.5658673,0.9697599,3.777318
25.34884,105.2942,0.5551287,0.9697599,3.777318
25.4,101.6069,0.5300738,0.9697599,3.777318
25.44984,100.0811,0.4978606,0.9697599,3.777318
25.49959,97.66531,0.4549089,0.9699246,3.777318
25.54953,96.26666,0.4334331,0.9697599,3.770859
25.59984,93.46941,0.4083768,0.9699246,3.777318
25.64992,91.56216,0.3654251,0.9699246,3.777318
25.70078,88.7649,0.3224734,0.9699246,3.770859
25.75,87.23911,0.3009975,0.9699246,3.770859
25.79899,86.60338,0.2652053,0.9695953,3.770859
25.84889,82.78893,0.1005567,0.9699246,3.770859
25.90005,81.26313,-0.06767107,0.9699246,3.770859
25.95102,116.229,-0.1857889,0.9699246,3.770859
25.99971,147.889,-0.2287406,0.9697599,3.7644
26.04978,134.0298,-0.2681133,0.9697599,3.770859
26.09975,131.614,-0.314644,0.9699246,3.7644
26.1502,131.1054,-0.3933893,0.9699246,3.7644
26.20092,120.1706,-0.4256024,0.9697599,3.7644
26.24924,119.5349,-0.4578168,0.9697599,3.7644
26.29907,118.8991,-0.5150849,0.9699246,3.7644
26.35004,114.4489,-0.5437202,0.9699246,3.757941
26.4,107.5829,-0.5902511,0.9697599,3.757941
26.44984,104.7856,-0.6081478,0.9697599,3.7644
26.49977,102.2427,-0.6510996,0.9699246,3.7644
26.54926,99.95398,-0.6689963,0.9697599,3.757941
26.5994,97.02956,-0.6761545,0.9699246,3.757941
26.65075,96.26666,-0.6654159,0.9697599,3.757941
26.70058,91.18073,-0.6689963,0.9699246,3.757941
26.74963,90.03638,-0.6940513,0.9699246,3.757941
26.79925,88.12916,-0.7155271,0.9699246,3.757941
26.84926,86.60338,-0.6654159,0.9699246,3.757941
26.90026,85.20473,-0.6725754,0.9699246,3.757941
26.95005,81.00883,-0.7548997,0.9697599,3.751482
26.99952,85.20473,-0.8801758,0.9699246,3.751482
27.04965,133.0126,-0.8801758,0.9697599,3.751482
27.09934,146.1089,-0.8050096,0.9699246,3.751482
27.15065,134.9198,-0.6618368,0.9699246,3.751482
27.20053,133.1398,-0.4971895,0.9697599,3.751482
27.24902,131.8683,-0.368333,0.9699246,3.745023
27.29904,120.5521,-0.2108439,0.9699246,3.751482
27.35003,119.7892,-0.02471936,0.9697599,3.745023
27.39999,119.662,0.1864601,0.9695953,3.751482
27.44999,114.8304,0.3117361,0.9697599,3.745023
27.49972,106.6929,0.4047977,0.9697599,3.745023
27.54978,105.1671,0.5014397,0.9699246,3.751482
27.59909,101.7341,0.5694464,0.9697599,3.745023
27.65005,101.0983,0.6195562,0.9697599,3.745023
27.70004,99.44539,0.662508,0.9699246,3.745023
27.74895,95.75809,0.7233564,0.9697599,3.745023
27.79994,92.7065,0.7555709,0.9697599,3.738563
27.85005,90.41783,0.7806258,0.9695953,3.745023
27.90005,88.63776,0.8021017,0.9699246,3.745023
27.95047,86.85767,0.8629501,0.9699246,3.745023
27.99897,85.33189,0.9166391,0.9697599,3.738563
28.04985,81.89888,0.9059018,0.9697599,3.745023
28.10003,85.45904,0.9059018,0.9697599,3.745023
28.15082,120.8064,0.9631712,0.9699246,3.738563
28.20046,146.999,1.024018,0.9699246,3.738563
28.24919,131.2325,1.056233,0.9697599,3.738563
28.2991,127.0366,1.092026,0.9697599,3.738563
28.34893,126.2737,1.113501,0.9697599,3.738563
28.40064,119.2806,1.134978,0.9697599,3.732104
28.45037,118.8991,1.170772,0.9699246,3.732104
28.49902,118.0091,1.188668,0.9699246,3.732104
28.54939,111.0159,1.185088,0.9697599,3.732104
28.59983,105.8028,1.17793,0.9697599,3.738563
28.65101,105.2942,1.156453,0.9697599,3.732104
28.70064,101.6069,1.12782,0.9697599,3.732104
28.74993,99.82683,1.113501,0.9699246,3.738563
28.79947,97.02956,1.095605,0.9697599,3.732104
28.85008,94.61374,1.07413,0.9697599,3.732104
28.90101,92.32506,1.027599,0.9697599,3.732104
28.95067,88.89205,0.9846471,0.9697599,3.732104
29.00012,88.89205,0.9273777,0.9699246,3.732104
29.04896,87.36626,0.8665292,0.9699246,3.732104
29.09897,83.04321,0.734095,0.9699246,3.732104
29.15063,82.15317,0.6481916,0.9697599,3.732104
29.20023,131.9954,0.6052399,0.9699246,3.732104
29.25011,149.5419,0.5766045,0.9697599,3.732104
29.29976,133.2669,0.5085979,0.9697599,3.725645
29.34943,128.8167,0.4405912,0.9699246,3.725645
29.40076,128.0538,0.3833219,0.9697599,3.732104
29.45048,123.4765,0.3582669,0.9699246,3.732104
29.4993,118.5177,0.3296329,0.9699246,3.732104
29.54922,118.6448,0.2938394,0.9697599,3.732104
29.6,113.1774,0.2616249,0.9697599,3.732104
29.65024,108.6001,0.2222536,0.9697599,3.725645
29.70021,103.7684,0.1649842,0.9697599,3.732104
29.7497,99.95398,0.09697758,0.9697599,3.732104
29.79901,98.55534,0.02896961,0.9697599,3.732104
29.84888,96.77527,-0.01756118,0.9697599,3.732104
29.9,94.2323,-0.05335471,0.9699246,3.738563
29.95043,91.94361,-0.1392581,0.9699246,3.738563
29.99996,88.89205,-0.2323197,0.9697599,3.738563
30.04967,88.00201,-0.2358988,0.9697599,3.738563
30.09975,87.11198,-0.2645342,0.9699246,3.745023
30.15081,83.67896,-0.3933893,0.9697599,3.745023
30.20024,84.569,-0.5508785,0.9699246,3.745023
30.24981,140.7687,-0.6296237,0.9697599,3.745023
30.29975,151.1949,-0.640361,0.9699246,3.745023
30.34975,136.6999,-0.6689963,0.9697599,3.751482
30.40049,135.5556,-0.6940513,0.9697599,3.745023
30.45048,134.0298,-0.7226853,0.9699246,3.751482
30.49927,123.9851,-0.737003,0.9699246,3.757941
30.55,120.9335,-0.7441611,0.9699246,3.751482
30.59944,120.6792,-0.7298447,0.9697599,3.757941
30.651,119.7892,-0.7155271,0.9697599,3.7644
30.701,112.4145,-0.686893,0.9697599,3.757941
30.74975,106.0571,-0.6510996,0.9697599,3.7644
30.79943,104.5313,-0.5723543,0.9699246,3.770859
30.84975,102.1155,-0.4757136,0.9697599,3.7644
30.90081,99.82683,-0.3325408,0.9697599,3.770859
30.95071,96.77527,-0.1822098,0.9697599,3.770859
30.99924,95.12233,-0.04261613,0.9699246,3.777318
31.04946,92.45221,0.1435084,0.9697599,3.770859
31.099,90.16354,0.3009975,0.9699246,3.770859
31.14996,89.0192,0.39048,0.9699246,3.777318
31.20005,84.82329,0.4155363,0.9697599,3.777318
31.24943,84.569,0.4405912,0.9697599,3.777318
31.29945,108.7272,0.5050188,0.9697599,3.783778
31.34895,149.5419,0.5587078,0.9699246,3.783778
31.40108,135.4285,0.6123981,0.9697599,3.783778
31.451,133.5212,0.662508,0.9697599,3.777318
31.49974,133.1398,0.7054597,0.9697599,3.783778
31.5496,125.3837,0.7376741,0.9699246,3.783778
31.5992,121.315,0.7663081,0.9697599,3.783778
31.65023,122.0779,0.8128389,0.9699246,3.783778
31.70087,120.0435,0.8951632,0.9697599,3.783778
31.74959,111.3974,0.9595909,0.9697599,3.783778
31.79908,109.363,1.038336,0.9697599,3.790237
31.84895,106.3114,1.07413,0.9699246,3.790237
31.90043,104.277,1.106343,0.9699246,3.790237
31.95039,101.9884,1.149294,0.9697599,3.790237
31.99999,99.19109,1.174349,0.9699246,3.790237
32.04957,96.64812,1.192246,0.9699246,3.790237
32.09935,94.61374,1.199404,0.9699246,3.790237
32.15094,93.46941,1.224459,0.9697599,3.790237
32.20007,91.18073,1.206565,0.9697599,3.790237
32.25008,86.85767,1.131398,0.9697599,3.790237
32.30006,94.48659,1.049075,0.9697599,3.796696
32.34966,115.5933,1.002542,0.9697599,3.796696
32.40007,150.3048,0.938115,0.9697599,3.796696
32.45044,137.8443,0.8593711,0.9699246,3.796696
32.499,129.1982,0.8235775,0.9699246,3.790237
32.54999,128.8167,0.7734677,0.9697599,3.790237
32.59941,119.662,0.7376741,0.9697599,3.796696
32.65022,119.0263,0.7161983,0.9697599,3.790237
32.70094,120.1706,0.6732466,0.9697599,3.796696
32.74945,115.0847,0.6589289,0.9699246,3.790237
32.7999,107.5829,0.6446125,0.9697599,3.790237
32.84999,106.4386,0.6159772,0.9699246,3.796696
32.89994,103.2598,0.5909222,0.9697599,3.796696
32.95107,101.9884,0.5622882,0.9697599,3.796696
32.99942,99.95398,0.5479705,0.9697599,3.796696
33.04897,96.64812,0.5014397,0.9697599,3.796696
33.09991,95.37663,0.4226945,0.9699246,3.796696
33.15107,91.94361,0.3761637,0.9699246,3.796696
33.2009,90.79928,0.386901,0.9697599,3.790237
33.24944,89.65494,0.3296329,0.9697599,3.796696
33.29921,84.82329,0.2222536,0.9697599,3.796696
33.34956,91.81647,0.06476314,0.9697599,3.790237
33.40069,127.1638,-0.02829845,0.9699246,3.790237
33.44999,148.9062,-0.07483057,0.9699246,3.796696
33.49957,136.1913,-0.1392581,0.9697599,3.796696
33.55002,134.6656,-0.1929471,0.9697599,3.790237
33.59993,134.157,-0.2573747,0.9697599,3.790237
33.65015,128.0538,-0.28601,0.9699246,3.790237
33.70096,122.205,-0.311065,0.9697599,3.790237
33.74998,121.4421,-0.3361199,0.9697599,3.790237
33.7994,116.3562,-0.3754925,0.9697599,3.790237
33.84928,110.7616,-0.4005475,0.9697599,3.790237
33.90021,107.5829,-0.4220233,0.9697599,3.790237
33.95019,105.6757,-0.464975,0.9697599,3.790237
33.99991,103.0055,-0.5079268,0.9697599,3.783778
34.04953,100.7169,-0.5365608,0.9699246,3.790237
34.0997,98.6825,-0.5365608,0.9699246,3.790237
34.15098,94.35944,-0.5222444,0.9699246,3.783778
34.20107,90.79928,-0.5472993,0.9697599,3.790237
34.24903,88.00201,-0.5437202,0.9697599,3.783778
34.30014,87.23911,-0.4112847,0.9699246,3.783778
34.34916,85.84048,-0.3468572,0.9697599,3.783778
34.40055,81.64457,-0.314644,0.9699246,3.790237
34.45119,92.32506,-0.2931682,0.9697599,3.790237
34.49981,146.7447,-0.2072648,0.9697599,3.783778
34.55019,148.6519,-0.08198874,0.9697599,3.783778
34.59993,135.8099,0.086239,0.9697599,3.783778
34.65035,135.1741,0.2687844,0.9697599,3.783778
34.70118,134.7927,0.3511087,0.9697599,3.777318
34.74918,123.7308,0.4334331,0.9699246,3.783778
34.79905,122.4593,0.5229156,0.9697599,3.783778
34.84993,121.6964,0.5945013,0.9697599,3.777318
34.90002,115.2118,0.6481916,0.9699246,3.783778
34.94998,110.7616,0.7018806,0.9697599,3.783778
34.99918,106.82,0.7519918,0.9697599,3.777318
35.04995,105.2942,0.787784,0.9697599,3.777318
35.09981,102.3698,0.8199984,0.9699246,3.777318
35.15104,99.95398,0.8736874,0.9697599,3.777318
35.2005,97.66531,0.9524326,0.9699246,3.777318
35.24988,95.12233,1.049075,0.9697599,3.777318
35.29906,92.7065,1.102764,0.9697599,3.777318
35.35017,89.65494,1.12782,0.9697599,3.770859
35.40052,89.5278,1.174349,0.9697599,3.777318
35.45058,88.00201,1.210143,0.9697599,3.770859
35.49954,84.569,1.188668,0.9699246,3.777318
35.54943,82.91606,1.160033,0.9697599,3.770859
35.59946,87.11198,1.156453,0.9697599,3.770859
35.65097,131.8683,1.156453,0.9699246,3.770859
35.70042,129.5796,1.145717,0.9697599,3.770859
35.75005,127.6724,1.131398,0.9697599,3.770859
35.80003,126.1466,1.113501,0.9697599,3.770859
35.84978,121.1878,1.099185,0.9699246,3.7644
35.90044,116.4833,1.095605,0.9697599,3.770859
35.95005,117.5005,1.081288,0.9699246,3.770859
35.99947,115.2118,1.063391,0.9697599,3.770859
36.04919,106.6929,1.049075,0.9697599,3.7644
36.10004,105.2942,1.024018,0.9699246,3.7644
36.15064,102.6241,0.9989635,0.9697599,3.7644
36.20065,100.7169,0.9488536,0.9697599,3.7644
36.2499,99.57254,0.8701083,0.9697599,3.7644
36.29993,96.26666,0.8271566,0.9697599,3.757941
36.3498,94.2323,0.8056808,0.9697599,3.7644
36.40017,91.05358,0.762729,0.9697599,3.757941
36.45091,88.7649,0.7197773,0.9699246,3.7644
36.49991,88.7649,0.6804047,0.9699246,3.7644
36.54994,85.71333,0.6696675,0.9697599,3.7644
36.5998,81.77173,0.5945013,0.9699246,3.757941
36.65082,81.39028,0.4656462,0.9697599,3.757941
36.70017,89.78209,0.386901,0.9697599,3.757941
36.74968,151.0677,0.3546878,0.9697599,3.757941
36.79913,135.5556,0.3224734,0.9697599,3.757941
36.84929,131.1054,0.2866812,0.9697599,3.757941
36.90066,130.8511,0.2401491,0.9697599,3.757941
36.95121,125.2566,0.182881,0.9699246,3.757941
36.99997,118.1362,0.1327698,0.9697599,3.751482
37.04991,118.2634,0.07550173,0.9697599,3.757941
37.09919,116.229,0.01107417,0.9697599,3.751482
37.15017,107.3286,-0.04261613,0.9699246,3.751482
37.20022,105.1671,-0.08198874,0.9697599,3.751482
37.24992,102.2427,-0.1428372,0.9699246,3.751482
37.29947,99.95398,-0.1929471,0.9699246,3.751482
37.34965,97.79247,-0.2358988,0.9699246,3.751482
37.40021,95.24948,-0.2609538,0.9697599,3.751482
37.45018,93.08795,-0.2681133,0.9697599,3.751482
37.49911,89.5278,-0.2824296,0.9699246,3.751482
37.55017,87.62056,-0.339699,0.9697599,3.745023
37.5997,85.20473,-0.4005475,0.9697599,3.751482
37.65066,85.33189,-0.3826507,0.9697599,3.745023
37.70069,84.0604,-0.3898089,0.9697599,3.751482
37.74946,80.50024,-0.4971895,0.9697599,3.745023
37.79939,80.88168,-0.6475204,0.9699246,3.751482
37.85018,114.1946,-0.7155271,0.9697599,3.745023
37.90113,147.6347,-0.7513206,0.9699246,3.745023
37.95121,133.1398,-0.7584788,0.9699246,3.745023
37.99942,131.4868,-0.7692161,0.9697599,3.745023
38.05021,130.4697,-0.7727965,0.9697599,3.745023
38.10022,122.7136,-0.7513206,0.9699246,3.745023
38.15021,118.0091,-0.6976303,0.9697599,3.745023
38.20074,118.0091,-0.6510996,0.9699246,3.745023
38.24948,116.1019,-0.5437202,0.9697599,3.745023
38.29974,107.4557,-0.4184442,0.9699246,3.745023
38.34973,105.1671,-0.2788505,0.9697599,3.745023
38.40094,100.2083,-0.1356777,0.9697599,3.745023
38.45002,96.90242,-0.0139821,0.9697599,3.745023
38.50016,94.35944,0.1291907,0.9697599,3.745023
38.54977,92.83366,0.2902603,0.9697599,3.738563
38.59913,89.5278,0.4083768,0.9699246,3.745023
38.65029,88.89205,0.4942802,0.9697599,3.745023
38.70077,86.98483,0.5515496,0.9697599,3.738563
38.74905,85.45904,0.6123981,0.9699246,3.738563
38.79945,84.0604,0.6839838,0.9697599,3.738563
38.84943,83.17036,0.6983015,0.9697599,3.745023
38.90114,77.32152,0.6983015,0.9697599,3.745023
38.95121,80.37309,0.7126192,0.9699246,3.738563
38.99945,148.9062,0.7519918,0.9697599,3.738563
39.04943,142.4216,0.7734677,0.9697599,3.738563
39.0999,128.3081,0.7985226,0.9699246,3.738563
39.1509,126.2737,0.8414743,0.9697599,3.738563
39.2009,126.0195,0.9059018,0.9697599,3.732104
39.2499,119.2806,0.9846471,0.9697599,3.732104
39.30013,118.3905,1.049075,0.9699246,3.732104
39.34933,116.3562,1.081288,0.9697599,3.738563
39.40041,107.71,1.117081,0.9697599,3.732104
39.45041,105.93,1.149294,0.9699246,3.738563
39.49937,102.2427,1.174349,0.9699246,3.732104
39.54989,99.69969,1.202985,0.9697599,3.732104
39.59928,98.42819,1.220881,0.9697599,3.732104
39.65068,97.79247,1.220881,0.9697599,3.732104
39.70076,92.7065,1.220881,0.9697599,3.732104
39.74932,91.18073,1.199404,0.9697599,3.732104
39.80011,88.00201,1.142136,0.9697599,3.732104
39.84903,86.85767,1.117081,0.9697599,3.732104
39.90072,85.96764,1.084867,0.9697599,3.732104
39.95014,82.15317,0.9488536,0.9697599,3.732104
40.00029,81.77173,0.7985226,0.9697599,3.732104
40.0492,94.2323,0.730516,0.9697599,3.725645
40.09925,148.3976,0.6875643,0.9697599,3.732104
40.15046,131.2325,0.6517707,0.9697599,3.725645
40.20012,125.2566,0.6016595,0.9697599,3.732104
40.24982,123.6036,0.5443915,0.9697599,3.732104
40.29936,120.5521,0.487122,0.9699246,3.732104
40.34924,116.9919,0.4513285,0.9697599,3.725645
40.4007,115.8476,0.4191154,0.9699246,3.732104
40.45045,111.3974,0.4083768,0.9697599,3.725645
40.50015,104.277,0.3833219,0.9697599,3.725645
40.54957,101.0983,0.3475283,0.9699246,3.725645
40.59957,98.80965,0.3188943,0.9697599,3.732104
40.6505,97.28386,0.2831008,0.9695953,3.732104
40.70034,94.74089,0.2580458,0.9699246,3.725645
40.74992,91.94361,0.2508877,0.9699246,3.732104
40.7999,89.90925,0.1936183,0.9697599,3.725645
40.85017,88.00201,0.07908082,0.9697599,3.732104
40.90011,85.33189,0.01107417,0.9699246,3.732104
40.95102,84.44184,0.007493759,0.9697599,3.732104
40.99969,84.18755,-0.06051289,0.9697599,3.732104
41.0497,81.39028,-0.2180021,0.9697599,3.732104
41.09975,86.09478,-0.311065,0.9699246,3.725645
41.15069,133.5212,-0.4077056,0.9697599,3.732104
41.20032,144.456,-0.4470783,0.9697599,3.725645
41.24917,133.5212,-0.4828718,0.9697599,3.725645
41.2999,130.3425,-0.5329817,0.9697599,3.725645
41.34956,130.724,-0.6045687,0.9697599,3.725645
41.40057,120.4249,-0.6224642,0.9695953,3.725645
41.4507,119.0263,-0.640361,0.9699246,3.725645
41.49916,118.1362,-0.6475204,0.9697599,3.725645
41.54932,116.1019,-0.6618368,0.9697599,3.725645
41.59944,106.0571,-0.6689963,0.9697599,3.725645
41.65088,105.6757,-0.6618368,0.9697599,3.732104
41.70112,101.9884,-0.6582577,0.9697599,3.732104
41.74994,98.42819,-0.6475204,0.9697599,3.732104
41.79998,97.28386,-0.6224642,0.9695953,3.725645
41.84996,94.2323,-0.5472993,0.9697599,3.725645
41.90102,91.56216,-0.4971895,0.9697599,3.725645
41.9505,88.7649,-0.4470783,0.9697599,3.732104
41.99932,87.11198,-0.3361199,0.9695953,3.725645
42.04921,86.09478,-0.1392581,0.9697599,3.725645
42.09932,84.0604,-0.03545795,0.9697599,3.725645
42.15066,81.39028,0.03255002,0.9699246,3.725645
42.20069,88.38345,0.1184534,0.9697599,3.725645
42.24914,138.0986,0.2795217,0.9699246,3.725645
42.29916,143.1845,0.4012186,0.9699246,3.719186
42.34996,134.4113,0.487122,0.9697599,3.725645
42.40062,132.2497,0.5587078,0.9697599,3.725645
42.45081,131.2325,0.6123981,0.9695953,3.725645
42.49943,122.4593,0.662508,0.9699246,3.725645
42.54931,120.9335,0.7233564,0.9697599,3.719186
42.59918,119.662,0.7698872,0.9697599,3.719186
42.65056,116.6105,0.8092598,0.9697599,3.719186
42.70031,108.0915,0.855792,0.9697599,3.719186
42.75016,105.6757,0.9345359,0.9697599,3.719186
42.79937,103.6413,1.01686,0.9697599,3.719186
42.85031,99.69969,1.088447,0.9697599,3.719186
42.90031,98.42819,1.134978,0.9697599,3.719186
42.95087,96.13953,1.17793,0.9697599,3.719186
42.99939,93.08795,1.202985,0.9699246,3.719186
43.04973,90.16354,1.217301,0.9697599,3.719186
43.0998,89.14634,1.235198,0.9699246,3.719186
43.15064,87.11198,1.249517,0.9699246,3.719186
43.20012,84.82329,1.220881,0.9697599,3.719186
43.25006,82.66177,1.181508,0.9697599,3.719186
43.29956,107.71,1.156453,0.9697599,3.719186
43.34935,150.8134,1.12782,0.9697599,3.712727
43.40078,133.9027,1.084867,0.9697599,3.712727
43.45071,129.1982,1.059812,0.9697599,3.712727
43.49979,126.528,1.027599,0.9699246,3.712727
43.54911,123.6036,1.002542,0.9697599,3.712727
43.60026,118.1362,0.9882262,0.9697599,3.712727
43.65112,118.1362,0.9309568,0.9699246,3.712727
43.70049,115.2118,0.8665292,0.9697599,3.712727
43.74921,106.9472,0.8486325,0.9697599,3.712727
43.79951,104.1499,0.8056808,0.9697599,3.712727
43.84943,101.9884,0.7842049,0.9697599,3.712727
43.9006,100.7169,0.7484114,0.9699246,3.712727
43.95123,96.90242,0.7090401,0.9697599,3.706268
43.99951,95.75809,0.6947224,0.9697599,3.712727
44.04954,91.94361,0.6768256,0.9697599,3.712727
44.09955,90.67213,0.6195562,0.9697599,3.712727
44.15053,87.62056,0.583764,0.9699246,3.706268
44.20087,86.73053,0.5801836,0.9697599,3.706268
44.24926,85.71333,0.4978606,0.9697599,3.706268
44.30023,81.89888,0.3761637,0.9697599,3.712727
44.34939,97.28386,0.3009975,0.9697599,3.706268
44.40111,150.6863,0.2616249,0.9699246,3.706268
44.45087,148.3976,0.2150941,0.9697599,3.706268
44.49981,133.5212,0.1077148,0.9697599,3.699808
44.54967,130.3425,0.04686638,0.9697599,3.699808
44.59911,130.0882,-0.01756118,0.9699246,3.706268
44.6501,122.0779,-0.0497743,0.9697599,3.699808
44.70088,118.6448,-0.09630642,0.9695953,3.706268
44.74942,118.1362,-0.1643131,0.9697599,3.706268
44.79972,111.906,-0.2108439,0.9697599,3.699808
44.8495,105.6757,-0.2394779,0.9697599,3.706268
44.9005,102.7513,-0.2681133,0.9697599,3.706268
44.95037,100.7169,-0.3039055,0.9697599,3.706268
44.99959,98.04675,-0.3325408,0.9697599,3.706268
45.04955,95.88522,-0.3754925,0.9699246,3.699808
45.09941,93.08795,-0.3754925,0.9697599,3.706268
45.15067,90.41783,-0.4148651,0.9699246,3.706268
45.20044,87.62056,-0.49003,0.9697599,3.706268
45.24967,86.73053,-0.5222444,0.9697599,3.706268
45.29917,85.96764,-0.4613959,0.9697599,3.706268
45.34914,83.42466,-0.4864509,0.9697599,3.706268
45.40062,81.00883,-0.5974092,0.9697599,3.706268
45.45109,83.80611,-0.6582577,0.9695953,3.699808
45.49986,151.8306,-0.6367819,0.9697599,3.699808
45.55025,141.2773,-0.561617,0.9699246,3.706268
45.60037,132.7583,-0.4506573,0.9697599,3.699808
45.65022,131.2325,-0.3361199,0.9699246,3.706268
45.7012,128.8167,-0.2108439,0.9697599,3.706268
45.74984,119.5349,-0.07840966,0.9697599,3.706268
45.79984,118.8991,0.1005567,0.9697599,3.706268
45.84975,116.9919,0.2938394,0.9697599,3.699808
45.9009,111.906,0.3940605,0.9697599,3.699808
45.95021,106.82,0.5085979,0.9699246,3.699808
45.99937,103.0055,0.583764,0.9697599,3.699808
46.04915,101.3526,0.6553498,0.9697599,3.699808
46.10035,98.80965,0.7126192,0.9697599,3.699808
46.1504,96.77527,0.762729,0.9697599,3.699808
46.20112,94.2323,0.8128389,0.9699246,3.699808
46.24989,90.54498,0.8378952,0.9697599,3.699808
46.29989,89.0192,0.8880051,0.9697599,3.699808
46.34937,86.98483,0.9631712,0.9697599,3.699808
46.40084,85.33189,1.081288,0.9697599,3.699808
46.45049,83.55181,1.117081,0.9697599,3.699808
46.49913,80.37309,1.106343,0.9699246,3.699808
46.54961,80.88168,1.109923,0.9697599,3.699808
46.59919,149.7962,1.134978,0.9697599,3.699808
46.65115,148.2705,1.160033,0.9699246,3.699808
46.70098,128.0538,1.185088,0.9699246,3.699808
46.74957,126.528,1.217301,0.9697599,3.699808
46.79939,124.8751,1.224459,0.9697599,3.699808
46.84939,117.3734,1.238778,0.9699246,3.693349
46.90133,116.6105,1.238778,0.9697599,3.699808
46.95086,116.229,1.23162,0.9697599,3.693349
46.99999,109.8716,1.22804,0.9697599,3.693349
47.04974,105.2942,1.217301,0.9697599,3.693349
47.09961,101.4798,1.17793,0.9697599,3.693349
47.15086,99.69969,1.138556,0.9697599,3.693349
47.20135,97.66531,1.099185,0.9697599,3.693349
47.24974,96.26666,1.066971,0.9697599,3.693349
47.29949,93.08795,1.041915,0.9699246,3.693349
47.34935,90.03638,1.002542,0.9699246,3.693349
47.40034,87.62056,0.9094809,0.9697599,3.693349
47.4507,86.47623,0.8343161,0.9697599,3.693349
47.49951,85.71333,0.8092598,0.9697599,3.693349
47.54916,83.29751,0.7197773,0.9699246,3.693349
47.59995,80.62739,0.6123981,0.9697599,3.693349
47.65033,82.15317,0.5408123,0.9697599,3.693349
47.70052,150.6863,0.4728044,0.9699246,3.68689
47.7495,138.9886,0.4047977,0.9699246,3.693349
47.80038,129.5796,0.3654251,0.9697599,3.693349
47.84958,128.0538,0.3117361,0.9699246,3.693349
47.90125,124.8751,0.2759426,0.9697599,3.68689
47.95125,119.2806,0.2437295,0.9697599,3.693349
47.99985,118.5177,0.211515,0.9699246,3.693349
48.05014,117.6276,0.1470875,0.9697599,3.693349
48.09966,106.4386,0.09339718,0.9699246,3.68689
48.15065,102.2427,0.05044547,0.9697599,3.68689
48.20046,100.3354,0.01823235,0.9697599,3.68689
48.25026,98.04675,-0.02114027,0.9697599,3.68689
48.30013,96.64812,-0.06409198,0.9697599,3.693349
48.34949,93.34225,-0.08198874,0.9699246,3.68689
48.40034,92.19792,-0.1213614,0.9697599,3.68689
48.45136,87.62056,-0.1857889,0.9699246,3.68689
48.49982,86.98483,-0.2287406,0.9697599,3.68689
48.54946,85.33189,-0.2108439,0.9697599,3.68689
48.59933,84.569,-0.2287406,0.9697599,3.68689
48.65058,82.28033,-0.3289617,0.9697599,3.68689
48.7002,79.48306,-0.464975,0.9697599,3.68689
48.74997,119.7892,-0.5186653,0.9697599,3.68689
48.79948,142.9302,-0.5329817,0.9697599,3.68689
48.8499,132.7583,-0.5687752,0.9697599,3.68689
48.90098,129.5796,-0.5902511,0.9697599,3.68689
48.95019,129.7068,-0.615306,0.9699246,3.68689
49.0001,119.7892,-0.6188851,0.9699246,3.68689
49.04949,118.1362,-0.6081478,0.9697599,3.68689
49.09958,117.3734,-0.5938302,0.9697599,3.68689
49.15077,112.6688,-0.5401412,0.9697599,3.68689
49.20132,105.2942,-0.4613959,0.9699246,3.680431
49.24987,103.5141,-0.3575958,0.9697599,3.680431
49.29964,100.3354,-0.2358988,0.9699246,3.68689
49.34933,98.55534,-0.1034646,0.9697599,3.68689
49.40136,95.75809,0.06118405,0.9699246,3.68689
49.45084,92.7065,0.2616249,0.9697599,3.68689
49.5,90.41783,0.3725846,0.9697599,3.68689
49.54997,87.62056,0.4441703,0.9697599,3.693349
49.59983,87.23911,0.5443915,0.9699246,3.68689
49.65048,84.95044,0.6231366,0.9697599,3.693349
49.70045,84.569,0.6446125,0.9699246,3.693349
49.74927,81.89888,0.6517707,0.9697599,3.693349
49.79927,92.96081,0.6696675,0.9697599,3.693349
49.84989,148.1433,0.7161983,0.9697599,3.699808
49.90118,131.2325,0.7519918,0.9697599,3.699808
49.95127,128.8167,0.7842049,0.9699246,3.699808
49.99997,129.8339,0.8056808,0.9697599,3.699808
50.0494,128.5624,0.8736874,0.9697599,3.706268
50.10038,117.2462,0.9488536,0.9697599,3.706268
50.15046,117.7548,1.041915,0.9699246,3.712727
50.20026,118.1362,1.088447,0.9699246,3.706268
50.2497,109.2358,1.12782,0.9697599,3.712727
50.29976,106.82,1.170772,0.9697599,3.712727
50.34977,104.6585,1.199404,0.9697599,3.719186
50.40084,102.2427,1.22804,0.9697599,3.719186
50.45084,100.7169,1.245936,0.9697599,3.725645
50.49989,97.66531,1.263833,0.9697599,3.725645
50.54996,96.52097,1.274572,0.9697599,3.725645
50.59995,89.5278,1.270991,0.9697599,3.732104
50.65117,89.14634,1.249517,0.9697599,3.732104
50.70031,90.67213,1.242356,0.9697599,3.738563
50.75026,87.62056,1.170772,0.9697599,3.738563
50.80026,84.82329,1.059812,0.9697599,3.745023
50.84977,101.2255,0.9989635,0.9697599,3.745023
50.90058,150.3048,0.9059018,0.9697599,3.745023
50.95109,140.8958,0.8307357,0.9697599,3.745023
50.99932,128.4353,0.7806258,0.9697599,3.751482
51.05041,126.9095,0.7448323,0.9697599,3.757941
51.10026,121.6964,0.6983015,0.9697599,3.757941
51.1514,117.8819,0.6660884,0.9699246,3.757941
51.20109,119.7892,0.6231366,0.9699246,3.7644
51.24971,121.315,0.6052399,0.9697599,3.757941
51.3004,108.8544,0.583764,0.9699246,3.7644
51.34981,106.4386,0.5622882,0.9699246,3.7644
51.40055,103.5141,0.5229156,0.9699246,3.770859
51.45021,101.4798,0.4728044,0.9699246,3.770859
51.49959,100.3354,0.4549089,0.9697599,3.770859
51.55021,97.41101,0.4334331,0.9697599,3.777318
51.59988,95.37663,0.3940605,0.9697599,3.777318
51.65136,94.2323,0.3224734,0.9699246,3.777318
51.70097,90.92643,0.3117361,0.9697599,3.783778
51.74971,89.40065,0.2866812,0.9697599,3.783778
51.80038,85.96764,0.1399293,0.9697599,3.783778
51.84959,85.07759,-0.02471936,0.9697599,3.783778
51.90055,121.5692,-0.1142019,0.9697599,3.790237
51.95121,151.322,-0.160734,0.9699246,3.790237
51.99968,136.5728,-0.2001053,0.9699246,3.790237
52.04947,134.5384,-0.2251616,0.9697599,3.790237
52.10007,135.6828,-0.2752714,0.9699246,3.790237
52.15075,127.5452,-0.3039055,0.9697599,3.796696
52.2003,122.9679,-0.3289617,0.9699246,3.796696
52.24982,122.4593,-0.3611749,0.9699246,3.790237
52.30009,121.8235,-0.3933893,0.9697599,3.796696
52.35008,112.4145,-0.4220233,0.9697599,3.796696
52.40038,106.0571,-0.4399201,0.9798071,3.796696
52.45038,104.5313,-0.4578168,0.9796425,3.796696
52.49934,102.6241,-0.4685541,0.9798071,3.803155
52.55021,101.0983,-0.464975,0.9798071,3.803155
52.59996,99.19109,-0.4613959,0.9798071,3.803155
52.65079,96.52097,-0.4721332,0.9796425,3.803155
52.70137,91.94361,-0.4721332,0.9796425,3.809614
52.74985,90.67213,-0.3719134,0.9799718,3.809614
52.79983,90.41783,-0.28601,0.9798071,3.809614
52.8496,86.09478,-0.2716923,0.9798071,3.816073
52.90038,85.96764,-0.2466374,0.9798071,3.809614
52.95085,108.4729,-0.1535745,0.9798071,3.816073
53.00033,145.9818,-0.0139821,0.9796425,3.816073
53.05033,137.8443,0.1542456,0.9799718,3.816073
53.09956,136.1913,0.3296329,0.9798071,3.822533
53.15059,136.9542,0.4119572,0.9798071,3.822533
53.20057,126.4009,0.5050188,0.9798071,3.822533
53.25033,125.638,0.5730255,0.9798071,3.822533
53.29927,124.3665,0.6446125,0.9798071,3.828992
53.34934,123.7308,0.7018806,0.9798071,3.822533
53.4006,113.9403,0.7484114,0.9798071,3.828992
53.45058,107.8372,0.787784,0.9798071,3.828992
53.49981,106.3114,0.8199984,0.9796425,3.835451
53.55037,103.6413,0.8486325,0.9799718,3.835451
53.60037,100.7169,0.9166391,0.9796425,3.84191
53.65067,100.0811,1.002542,0.9796425,3.84191
53.70138,97.15671,1.084867,0.9798071,3.84191
53.75029,93.978,1.113501,0.9798071,3.84191
53.80008,91.43503,1.167191,0.9798071,3.84191
53.85012,91.30788,1.206565,0.9798071,3.848369
53.90069,88.12916,1.174349,0.9798071,3.848369
53.95132,88.7649,1.152875,0.9798071,3.848369
53.99996,104.9128,1.170772,0.9799718,3.854828
54.04959,149.6691,1.188668,0.9798071,3.854828
54.0993,134.6656,1.192246,0.9798071,3.854828
54.15062,132.7583,1.185088,0.9798071,3.854828
54.20083,131.1054,1.174349,0.9798071,3.854828
54.25032,122.8407,1.152875,0.9796425,3.861288
54.30037,121.4421,1.145717,0.9798071,3.861288
54.34994,122.5864,1.134978,0.9799718,3.867747
54.40105,116.9919,1.120662,0.9798071,3.867747
54.45112,112.2874,1.099185,0.9798071,3.867747
54.4998,109.9987,1.081288,0.9799718,3.867747
54.54943,104.6585,1.045496,0.9798071,3.867747
54.59949,101.4798,1.01686,0.9796425,3.874206
54.65038,101.0983,0.9918053,0.9798071,3.874206
54.70033,96.52097,0.9202195,0.9798071,3.880665
54.74944,95.88522,0.8522115,0.9799718,3.880665
54.80024,95.24948,0.7842049,0.9796425,3.880665
54.84955,91.94361,0.7734677,0.9798071,3.880665
54.90044,89.5278,0.7233564,0.9796425,3.880665
54.95108,88.7649,0.6052399,0.9798071,3.887124
54.99977,91.05358,0.5229156,0.9798071,3.887124
55.04957,134.7927,0.4370122,0.9798071,3.887124
55.10004,142.9302,0.4047977,0.9798071,3.887124
55.15068,136.1913,0.3690042,0.9798071,3.887124
55.20069,134.6656,0.3224734,0.9798071,3.887124
55.24944,132.1226,0.2795217,0.9796425,3.887124
55.2994,124.6208,0.2437295,0.9798071,3.887124
55.34931,122.5864,0.2186732,0.9796425,3.887124
55.40079,122.0779,0.1649842,0.9798071,3.887124
55.45144,115.7204,0.1041358,0.9798071,3.887124
55.49929,109.9987,0.05760496,0.9798071,3.887124
55.55024,108.6001,0.01107417,0.9799718,3.887124
55.60011,99.44539,-0.02829845,0.9796425,3.887124
55.65065,101.9884,-0.07483057,0.9796425,3.887124
55.70061,101.3526,-0.1142019,0.9799718,3.887124
55.74931,99.31824,-0.1392581,0.9798071,3.887124
55.80036,94.61374,-0.2108439,0.9798071,3.893583
55.84936,93.2151,-0.2645342,0.9798071,3.887124
55.90059,92.32506,-0.2573747,0.9798071,3.887124
55.9503,90.41783,-0.2788505,0.9798071,3.893583
55.99994,84.44184,-0.4148651,0.9799718,3.887124
56.04978,92.32506,-0.5401412,0.9798071,3.887124
56.09961,125.2566,-0.6045687,0.9798071,3.887124
56.15054,148.9062,-0.6188851,0.9798071,3.887124
56.20136,139.2429,-0.6546786,0.9798071,3.887124
56.24982,137.8443,-0.6797336,0.9798071,3.887124
56.2998,138.0986,-0.7334239,0.9798071,3.887124
56.35025,126.4009,-0.737003,0.9799718,3.880665
56.40036,124.4937,-0.6904721,0.9798071,3.880665
56.45069,123.3493,-0.640361,0.9798071,3.880665
56.49936,119.0263,-0.561617,0.9798071,3.880665
56.5498,112.6688,-0.4399201,0.9798071,3.880665
56.59966,108.8544,-0.2931682,0.9798071,3.880665
56.65081,106.9472,-0.1571536,0.9796425,3.880665
56.70081,102.6241,0.00391467,0.9798071,3.880665
56.7501,101.6069,0.1900392,0.9798071,3.874206
56.79984,97.66531,0.3582669,0.9798071,3.874206
56.85035,95.88522,0.4620671,0.9798071,3.880665
56.90035,92.7065,0.5443915,0.9799718,3.874206
56.95035,90.67213,0.6052399,0.9798071,3.874206
57.00039,90.29069,0.6839838,0.9798071,3.880665
57.04935,86.98483,0.7090401,0.9798071,3.880665
57.0996,84.18755,0.7090401,0.9796425,3.874206
57.15105,84.18755,0.7269355,0.9799718,3.880665
57.20108,126.4009,0.75915,0.9796425,3.874206
57.24939,151.5763,0.7806258,0.9798071,3.874206
57.29935,134.2841,0.8092598,0.9798071,3.874206
57.35008,134.4113,0.8665292,0.9796425,3.874206
57.40135,133.1398,0.9309568,0.9798071,3.867747
57.45057,122.4593,1.01686,0.9796425,3.867747
57.50035,122.3321,1.084867,0.9796425,3.867747
57.5498,122.5864,1.120662,0.9798071,3.874206
57.59935,115.8476,1.163613,0.9798071,3.867747
57.65088,112.5417,1.202985,0.9798071,3.867747
57.70088,108.4729,1.22804,0.9796425,3.867747
57.75035,104.1499,1.245936,0.9798071,3.867747
57.79982,102.2427,1.256675,0.9798071,3.861288
57.84959,100.7169,1.256675,0.9796425,3.867747
57.90066,97.79247,1.256675,0.9796425,3.861288
57.95151,95.37663,1.249517,0.9798071,3.861288
58.00008,92.7065,1.217301,0.9798071,3.861288
58.05022,91.18073,1.199404,0.9798071,3.861288
58.10054,90.03638,1.17793,0.9796425,3.867747
58.15105,86.85767,1.070551,0.9798071,3.861288
58.20047,83.80611,0.9631712,0.9798071,3.861288
58.25047,88.00201,0.8593711,0.9798071,3.861288
58.29993,150.6863,0.8092598,0.9798071,3.854828
58.3494,143.6931,0.7734677,0.9798071,3.854828
58.40133,129.9611,0.7519918,0.9798071,3.861288
58.45107,128.8167,0.7090401,0.9798071,3.854828
58.49955,126.9095,0.6553498,0.9798071,3.854828
58.55051,117.5005,0.6338739,0.9798071,3.854828
58.60043,119.7892,0.6159772,0.9798071,3.854828
58.65141,121.1878,0.5873432,0.9796425,3.848369
58.70147,111.906,0.5658673,0.9798071,3.848369
58.74986,102.3698,0.5336528,0.9798071,3.848369
58.79934,104.5313,0.4763848,0.9796425,3.848369
58.85043,101.2255,0.4334331,0.9798071,3.848369
58.90081,99.19109,0.4047977,0.9796425,3.848369
58.95042,96.13953,0.3833219,0.9798071,3.848369
58.99977,93.85085,0.3582669,0.9796425,3.84191
59.05034,91.18073,0.3045766,0.9798071,3.848369
59.10017,89.5278,0.2544667,0.9798071,3.84191
59.15036,88.12916,0.2437295,0.9796425,3.84191
59.20113,86.09478,0.1470875,0.9799718,3.84191
59.24947,82.66177,-0.02829845,0.9798071,3.84191
59.29959,86.85767,-0.160734,0.9796425,3.84191
59.35004,121.9507,-0.2287406,0.9798071,3.84191
59.40059,147.6347,-0.2573747,0.9798071,3.835451
59.45134,137.4628,-0.2967473,0.9798071,3.835451
59.49959,132.8855,-0.3432781,0.9798071,3.835451
59.55005,134.0298,-0.4256024,0.9798071,3.828992
59.59942,123.6036,-0.4542364,0.9798071,3.828992
59.65052,120.6792,-0.4685541,0.9796425,3.828992
59.70134,119.7892,-0.4828718,0.9796425,3.828992
59.75047,119.0263,-0.5115058,0.9798071,3.828992
59.79992,110.6345,-0.5437202,0.9798071,3.828992
59.84958,104.6585,-0.5795125,0.9798071,3.828992
59.90117,104.277,-0.5938302,0.9799718,3.828992
59.95083,99.95398,-0.6009883,0.9798071,3.828992
60.00017,98.80965,-0.6045687,0.9798071,3.822533
60.04955,95.37663,-0.5830929,0.9798071,3.822533
60.10052,92.45221,-0.561617,0.9798071,3.822533
60.15054,90.16354,-0.5472993,0.9798071,3.816073
60.201,87.49342,-0.5043476,0.9799718,3.822533
60.24979,87.36626,-0.3611749,0.9798071,3.822533
60.30031,85.84048,-0.2573747,0.9798071,3.822533
60.3503,81.26313,-0.2036857,0.9798071,3.816073
60.40117,87.62056,-0.1428372,0.9798071,3.816073
60.45116,137.4628,-0.01756118,0.9798071,3.816073
60.50055,150.8134,0.1506666,0.9798071,3.809614
60.54975,135.8099,0.3188943,0.9798071,3.809614
60.60023,133.0126,0.4334331,0.9798071,3.809614
60.65158,133.1398,0.5229156,0.9796425,3.809614
60.70158,123.2222,0.5766045,0.9798071,3.809614
60.75002,121.6964,0.6410321,0.9796425,3.809614
60.7994,120.9335,0.6983015,0.9798071,3.809614
60.85005,115.5933,0.7484114,0.9798071,3.803155
60.90078,109.2358,0.787784,0.9798071,3.803155
60.9506,105.6757,0.8235775,0.9799718,3.803155
61.0001,103.387,0.8629501,0.9798071,3.809614
61.05007,100.4626,0.9345359,0.9798071,3.809614
61.09962,98.42819,1.006123,0.9798071,3.809614
61.15083,94.99519,1.081288,0.9798071,3.803155
61.2013,92.7065,1.117081,0.9796425,3.809614
61.24953,89.2735,1.142136,0.9796425,3.809614
61.29958,87.23911,1.170772,0.9798071,3.809614
61.34958,86.09478,1.213723,0.9798071,3.809614
61.40128,84.82329,1.202985,0.9798071,3.803155
61.4513,81.39028,1.170772,0.9796425,3.809614
61.49978,101.0983,1.167191,0.9798071,3.809614
61.54966,151.9578,1.17793,0.9798071,3.809614
61.60016,139.3701,1.174349,0.9798071,3.809614
61.65102,129.5796,1.167191,0.9798071,3.809614
61.70113,128.4353,1.160033,0.9796425,3.809614
61.74982,124.4937,1.138556,0.9798071,3.809614
61.79981,117.7548,1.138556,0.9798071,3.809614
61.84957,117.8819,1.124239,0.9798071,3.809614
61.90084,118.6448,1.109923,0.9798071,3.809614
61.95118,106.4386,1.099185,0.9798071,3.809614
61.99982,104.1499,1.081288,0.9798071,3.809614
62.05,101.6069,1.052654,0.9798071,3.809614
62.09945,98.55534,1.031178,0.9798071,3.809614
62.1504,97.79247,0.9989635,0.9798071,3.816073
62.2014,93.72369,0.9524326,0.9798071,3.809614
62.24969,92.32506,0.8808469,0.9796425,3.809614
62.3003,88.89205,0.8199984,0.9798071,3.809614
62.35025,85.58618,0.7663081,0.9798071,3.809614
62.40157,87.11198,0.762729,0.9798071,3.809614
62.45129,85.07759,0.6875643,0.9798071,3.809614
62.49951,80.62739,0.5730255,0.9798071,3.809614
62.54969,80.75454,0.4728044,0.9798071,3.809614
62.5995,117.3734,0.4119572,0.9798071,3.809614
62.65082,153.4836,0.3690042,0.9796425,3.809614
62.70068,131.614,0.3367911,0.9796425,3.809614
62.74976,128.9439,0.2974184,0.9796425,3.809614
62.79953,127.2909,0.2580458,0.9796425,3.809614
62.85025,116.6105,0.2401491,0.9798071,3.809614
62.90152,117.7548,0.211515,0.9798071,3.809614
62.95143,119.4077,0.1506666,0.9799718,3.809614
62.99998,107.9643,0.114873,0.9798071,3.803155
63.04969,104.277,0.07908082,0.9798071,3.809614
63.09969,101.6069,0.05044547,0.9796425,3.803155
63.15079,98.9368,0.01107417,0.9798071,3.803155
63.20089,97.53816,-0.01040169,0.9798071,3.809614
63.25024,94.61374,-0.0139821,0.9796425,3.809614
63.29977,92.32506,-0.03903704,0.9798071,3.803155
63.34942,89.65494,-0.1142019,0.9798071,3.803155
63.40127,86.73053,-0.1678922,0.9798071,3.803155
63.4504,85.71333,-0.1428372,0.9798071,3.803155
63.49939,84.95044,-0.189368,0.9798071,3.803155
63.55061,79.99165,-0.2752714,0.9798071,3.803155
63.59956,85.96764,-0.4077056,0.9798071,3.796696
63.65052,110.5073,-0.4506573,0.9796425,3.803155
63.70078,140.7687,-0.4506573,0.9796425,3.803155
63.74998,134.2841,-0.4721332,0.9798071,3.803155
63.79964,131.9954,-0.4828718,0.9798071,3.796696
63.85056,132.8855,-0.5007685,0.9798071,3.796696
63.90152,121.1878,-0.49003,0.9798071,3.796696
63.95139,120.2978,-0.4542364,0.9798071,3.796696
64.00015,119.4077,-0.3898089,0.9798071,3.796696
64.04999,110.7616,-0.3003264,0.9796425,3.796696
64.10049,106.5657,-0.189368,0.9796425,3.796696
64.15056,103.5141,-0.03545795,0.9798071,3.796696
64.20155,99.69969,0.1220325,0.9798071,3.803155
64.25038,98.1739,0.2902603,0.9798071,3.790237
64.30003,95.50377,0.4119572,0.9798071,3.796696
64.35004,93.85085,0.512177,0.9798071,3.796696
64.40082,90.54498,0.5694464,0.9798071,3.790237
64.45136,89.0192,0.6446125,0.9798071,3.790237
64.50021,87.62056,0.7161983,0.9796425,3.790237
64.55002,84.18755,0.7197773,0.9798071,3.790237
64.60004,81.39028,0.7269355,0.9798071,3.790237
64.65076,81.00883,0.7412532,0.9798071,3.790237
64.70056,153.865,0.7734677,0.9798071,3.783778
64.74988,146.6175,0.7913631,0.9798071,3.790237
64.79989,133.1398,0.8199984,0.9798071,3.790237
64.85036,131.2325,0.8808469,0.9798071,3.790237
64.90074,130.2153,0.9273777,0.9799718,3.783778
64.95136,117.8819,1.013281,0.9798071,3.783778
64.99961,118.5177,1.084867,0.9798071,3.790237
65.04956,121.0607,1.120662,0.9798071,3.790237
65.09981,116.3562,1.167191,0.9796425,3.783778
65.15118,106.3114,1.202985,0.9799718,3.783778
65.20073,105.5485,1.23162,0.9798071,3.790237
65.24972,101.0983,1.245936,0.9798071,3.783778
65.29964,99.95398,1.263833,0.9799718,3.790237
65.35068,97.53816,1.270991,0.9798071,3.783778
65.40069,95.37663,1.260253,0.9798071,3.790237
65.45149,92.45221,1.245936,0.9796425,3.790237
65.49986,90.79928,1.238778,0.9798071,3.790237
65.55049,89.0192,1.213723,0.9799718,3.796696
65.60068,85.20473,1.106343,0.9798071,3.796696
65.65081,84.3147,1.01686,0.9796425,3.796696
65.70088,107.3286,0.938115,0.9799718,3.796696
65.75036,143.3117,0.8665292,0.9798071,3.796696
65.79988,133.5212,0.8092598,0.9798071,3.796696
65.84975,131.4868,0.7770467,0.9798071,3.796696
65.90104,128.3081,0.7412532,0.9798071,3.803155
65.95113,118.2634,0.7161983,0.9798071,3.803155
66.00067,117.8819,0.6983015,0.9798071,3.803155
66.04977,119.4077,0.6446125,0.9796425,3.803155
66.10047,115.7204,0.6195562,0.9798071,3.809614
66.15063,103.5141,0.6052399,0.9798071,3.803155
66.20122,104.9128,0.5766045,0.9796425,3.809614
66.25032,102.2427,0.5515496,0.9798071,3.809614
66.30032,99.95398,0.5050188,0.9796425,3.816073
66.35034,98.42819,0.4763848,0.9798071,3.816073
66.40166,95.12233,0.4262736,0.9798071,3.816073
66.45139,93.08795,0.3690042,0.9796425,3.816073
66.49978,90.92643,0.3296329,0.9798071,3.822533
66.54975,89.5278,0.333212,0.9798071,3.822533
66.5998,86.73053,0.2723635,0.9796425,3.822533
66.65099,84.44184,0.1005567,0.9798071,3.828992
66.70063,90.03638,-0.02471936,0.9798071,3.828992
66.75063,129.7068,-0.08198874,0.9798071,3.828992
66.80032,145.8546,-0.1177823,0.9798071,3.828992
66.85002,137.7171,-0.160734,0.9798071,3.828992
66.90064,134.4113,-0.2036857,0.9798071,3.835451
66.95065,133.2669,-0.2466374,0.9799718,3.835451
67.00064,121.6964,-0.2681133,0.9798071,3.835451
67.04963,121.8235,-0.2716923,0.9798071,3.828992
67.09982,122.9679,-0.2895891,0.9798071,3.835451
67.15079,114.1946,-0.3074859,0.9798071,3.835451
67.20065,109.7444,-0.339699,0.9798071,3.835451
67.24963,105.8028,-0.3826507,0.9798071,3.828992
67.29997,103.8956,-0.4220233,0.9798071,3.84191
67.34988,101.6069,-0.4399201,0.9798071,3.835451
67.40147,98.1739,-0.4291815,0.9798071,3.835451
67.45129,96.13953,-0.4327606,0.9798071,3.84191
67.50063,93.34225,-0.4399201,0.9798071,3.835451
67.5498,91.94361,-0.4184442,0.9798071,3.84191
67.60012,89.5278,-0.2788505,0.9796425,3.835451
67.65134,88.7649,-0.2394779,0.9796425,3.84191
67.70129,84.0604,-0.2251616,0.9798071,3.835451
67.75029,92.32506,-0.1750503,0.9796425,3.84191
67.80012,140.1329,-0.04261613,0.9798071,3.84191
67.84988,152.8478,0.114873,0.9796425,3.835451
67.90048,136.8271,0.2974184,0.9796425,3.835451
67.95096,135.8099,0.4047977,0.9798071,3.84191
67.99974,134.9198,0.4978606,0.9798071,3.84191
68.04962,124.1122,0.5730255,0.9798071,3.84191
68.10029,123.095,0.6517707,0.9798071,3.835451
68.15152,123.2222,0.7018806,0.9799718,3.84191
68.20096,116.229,0.7555709,0.9798071,3.835451
68.25062,110.6345,0.787784,0.9798071,3.84191
68.30027,106.1843,0.8235775,0.9798071,3.835451
68.35024,104.5313,0.8486325,0.9798071,3.835451
68.401,101.9884,0.9023228,0.9798071,3.835451
68.45087,99.69969,0.9703294,0.9796425,3.835451
68.50029,96.13953,1.063391,0.9798071,3.835451
68.55029,94.61374,1.117081,0.9799718,3.835451
68.60007,92.07076,1.152875,0.9798071,3.835451
68.65046,91.43503,1.213723,0.9799718,3.835451
68.70103,89.14634,1.220881,0.9796425,3.835451
68.75062,84.95044,1.195827,0.9799718,3.835451
68.80024,84.82329,1.185088,0.9798071,3.835451
68.84975,126.0195,1.199404,0.9799718,3.835451
68.90057,142.1673,1.202985,0.9796425,3.835451
68.95075,133.1398,1.199404,0.9798071,3.835451
68.99948,131.1054,1.188668,0.9798071,3.835451
69.04972,128.3081,1.163613,0.9796425,3.828992
69.10013,120.1706,1.156453,0.9798071,3.828992
69.15101,120.0435,1.145717,0.9798071,3.828992
69.20099,120.4249,1.120662,0.9798071,3.828992
69.24954,112.796,1.113501,0.9798071,3.828992
69.29971,107.9643,1.088447,0.9798071,3.828992
69.3505,105.1671,1.052654,0.9796425,3.828992
69.40124,103.5141,1.027599,0.9799718,3.828992
69.45129,100.4626,0.9882262,0.9796425,3.828992
69.49986,98.80965,0.938115,0.9798071,3.828992
69.55041,96.26666,0.8772678,0.9796425,3.828992
69.59973,92.96081,0.8128389,0.9798071,3.828992
69.65124,92.32506,0.7663081,0.9798071,3.828992
69.70071,90.16354,0.7663081,0.9798071,3.828992
69.75051,87.23911,0.6839838,0.9798071,3.828992
69.8005,84.0604,0.5801836,0.9799718,3.835451
69.85059,94.86804,0.4728044,0.9798071,3.828992
69.90054,153.6107,0.4191154,0.9798071,3.828992
69.9515,147.6347,0.3833219,0.9799718,3.822533
69.99998,136.3185,0.3511087,0.9796425,3.828992
70.04973,134.7927,0.308157,0.9798071,3.822533
70.0997,133.9027,0.2723635,0.9798071,3.822533
70.15103,122.205,0.2544667,0.9798071,3.822533
70.20088,121.9507,0.2222536,0.9798071,3.828992
70.25049,122.0779,0.1721424,0.9798071,3.828992
70.30042,112.5417,0.1112939,0.9798071,3.822533
70.35046,108.0915,0.07192132,0.9798071,3.828992
70.40128,105.2942,0.0397082,0.9798071,3.822533
70.4514,103.387,-0.003243508,0.9798071,3.828992
70.49972,101.7341,-0.04261613,0.9798071,3.828992
70.55055,98.1739,-0.06409198,0.9798071,3.828992
70.60028,96.13953,-0.1106228,0.9798071,3.828992
70.65158,93.08795,-0.1929471,0.9798071,3.828992
70.70159,91.43503,-0.2108439,0.9798071,3.828992
70.75014,90.41783,-0.2001053,0.9798071,3.828992
70.79996,87.11198,-0.2573747,0.9798071,3.828992
70.85002,83.67896,-0.3826507,0.9798071,3.828992
70.9014,98.30104,-0.4828718,0.9799718,3.828992
70.95086,154.5007,-0.5186653,0.9799718,3.828992
71.0004,140.8958,-0.5329817,0.9798071,3.828992
71.04987,137.2085,-0.5472993,0.9798071,3.828992
71.09975,136.5728,-0.5580366,0.9796425,3.835451
71.1515,130.3425,-0.5687752,0.9798071,3.828992
71.20148,123.7308,-0.5759334,0.9798071,3.828992
71.25002,122.7136,-0.5508785,0.9798071,3.828992
71.30002,121.6964,-0.5079268,0.9798071,3.828992
71.35065,114.3218,-0.4757136,0.9798071,3.828992
71.40135,108.4729,-0.4184442,0.9798071,3.828992
71.45095,105.5485,-0.3289617,0.9798071,3.828992
71.5007,102.7513,-0.2323197,0.9798071,3.828992
71.55027,100.0811,-0.1142019,0.9799718,3.828992
71.59985,98.42819,0.04686638,0.9796425,3.828992
71.65134,96.64812,0.2437295,0.9798071,3.828992
71.70164,91.81647,0.3546878,0.9796425,3.828992
71.74956,90.29069,0.4334331,0.9798071,3.828992
71.80069,88.7649,0.5515496,0.9796425,3.828992
71.8506,87.36626,0.637453,0.9798071,3.828992
71.90169,83.42466,0.6481916,0.9798071,3.828992
71.95127,87.23911,0.6517707,0.9798071,3.828992
72.00022,118.5177,0.6768256,0.9796425,3.828992
72.05051,155.2636,0.7197773,0.9796425,3.828992
72.09995,138.3529,0.762729,0.9798071,3.822533
72.15127,135.5556,0.7949435,0.9799718,3.828992
72.20147,133.1398,0.8164194,0.9798071,3.828992
72.25022,124.1122,0.8343161,0.9798071,3.828992
72.30031,121.8235,0.9059018,0.9798071,3.822533
72.35007,121.5692,0.9703294,0.9798071,3.822533
72.40109,118.8991,1.052654,0.9796425,3.828992
72.45173,111.5245,1.113501,0.9798071,3.828992
72.49999,109.4901,1.149294,0.9796425,3.822533
72.55046,105.0399,1.188668,0.9798071,3.828992
72.59965,103.6413,1.213723,0.9796425,3.828992
72.65151,99.95398,1.242356,0.9798071,3.822533
72.70152,98.04675,1.260253,0.9798071,3.822533
72.75021,94.99519,1.267414,0.9798071,3.822533
72.79976,92.83366,1.256675,0.9798071,3.822533
72.84972,91.43503,1.256675,0.9799718,3.828992
72.90076,90.03638,1.253095,0.9798071,3.828992
72.95154,85.71333,1.17793,0.9798071,3.828992
73.00021,84.82329,1.088447,0.9799718,3.828992
73.05038,102.497,1.027599,0.9799718,3.822533
73.1,153.4836,0.9774876,0.9798071,3.822533
73.1517,140.3873,0.8987437,0.9796425,3.828992
73.20093,131.9954,0.8772678,0.9798071,3.822533
73.25073,130.5968,0.8522115,0.9798071,3.822533
73.29963,125.8923,0.8307357,0.9798071,3.822533
73.35069,119.4077,0.8021017,0.9798071,3.816073
73.40099,120.1706,0.7770467,0.9798071,3.822533
73.45176,116.7376,0.7698872,0.9798071,3.822533
73.5005,111.5245,0.762729,0.9798071,3.822533
73.55049,103.8956,0.7484114,0.9798071,3.816073
73.60013,103.6413,0.7054597,0.9798071,3.822533
73.65119,102.7513,0.6875643,0.9798071,3.822533
73.70138,98.55534,0.662508,0.9798071,3.822533
73.75,96.39381,0.6517707,0.9798071,3.822533
73.79963,94.74089,0.6231366,0.9798071,3.822533
73.8507,90.54498,0.5658673,0.9798071,3.822533
73.90083,89.65494,0.5300738,0.9796425,3.822533
73.9515,88.38345,0.5193365,0.9798071,3.822533
73.99971,85.33189,0.4012186,0.9796425,3.822533
74.05022,83.29751,0.3153152,0.9796425,3.822533
74.10078,89.14634,0.2544667,0.9798071,3.816073
74.15171,153.7379,0.1649842,0.9798071,3.816073
74.20068,139.4972,0.08981808,0.9798071,3.816073
74.25013,134.4113,0.03612911,0.9798071,3.816073
74.29995,133.5212,-0.01756118,0.9798071,3.816073
74.34995,129.7068,-0.07125016,0.9799718,3.816073
74.40121,120.9335,-0.1034646,0.9799718,3.816073
74.45127,120.4249,-0.1249405,0.9798071,3.816073
74.49966,120.2978,-0.1535745,0.9798071,3.816073
74.54978,110.6345,-0.189368,0.9796425,3.809614
74.60013,108.8544,-0.2108439,0.9796425,3.816073
74.65163,107.5829,-0.2323197,0.9799718,3.809614
74.70133,101.4798,-0.2537956,0.9798071,3.809614
74.75069,99.69969,-0.2716923,0.9798071,3.809614
74.8005,96.90242,-0.2716923,0.9798071,3.809614
74.85046,94.35944,-0.2609538,0.9798071,3.809614
74.90055,91.18073,-0.2716923,0.9798071,3.809614
74.95128,89.5278,-0.2967473,0.9799718,3.809614
75.00076,88.5106,-0.2752714,0.9798071,3.809614
75.05025,86.73053,-0.2358988,0.9798071,3.809614
75.10025,83.42466,-0.2466374,0.9798071,3.803155
75.15071,82.02603,-0.2716923,0.9799718,3.803155
75.20149,125.2566,-0.2716923,0.9798071,3.803155
75.24986,155.0093,-0.2215811,0.9798071,3.803155
75.30029,139.3701,-0.1571536,0.9798071,3.803155
75.34958,136.6999,-0.03187754,0.9798071,3.803155
75.40094,134.6656,0.114873,0.9798071,3.803155
75.45058,130.2153,0.2723635,0.9798071,3.803155
75.50008,121.5692,0.3690042,0.9798071,3.796696
75.5507,120.5521,0.487122,0.9798071,3.796696
75.59966,120.4249,0.5766045,0.9798071,3.796696
75.64983,116.229,0.6481916,0.9798071,3.796696
75.69993,106.82,0.6947224,0.9798071,3.796696
75.74993,105.0399,0.7448323,0.9798071,3.796696
75.80167,101.0983,0.7842049,0.9798071,3.796696
75.84969,99.69969,0.8164194,0.9798071,3.796696
75.89975,97.02956,0.8522115,0.9798071,3.796696
75.95071,93.46941,0.8987437,0.9798071,3.796696
76.00036,91.94361,0.9488536,0.9798071,3.796696
76.05122,88.7649,1.006123,0.9798071,3.796696
76.09997,87.74771,1.081288,0.9796425,3.790237
76.15074,86.47623,1.152875,0.9799718,3.796696
76.20015,83.04321,1.142136,0.9796425,3.796696
76.25068,83.42466,1.124239,0.9798071,3.796696
76.30074,111.7788,1.134978,0.9796425,3.790237
76.35069,152.2121,1.149294,0.9798071,3.790237
76.40022,135.6828,1.160033,0.9798071,3.796696
76.44994,132.2497,1.188668,0.9796425,3.796696
76.49994,130.2153,1.220881,0.9798071,3.790237
76.55094,124.748,1.235198,0.9799718,3.790237
76.60053,120.1706,1.253095,0.9798071,3.790237
76.65049,120.6792,1.253095,0.9796425,3.790237
76.70042,120.8064,1.253095,0.9798071,3.790237
76.75049,109.4901,1.245936,0.9799718,3.790237
76.80173,106.5657,1.22804,0.9798071,3.790237
76.85003,102.7513,1.206565,0.9798071,3.790237
76.89973,100.7169,1.167191,0.9798071,3.790237
76.95065,98.1739,1.138556,0.9798071,3.790237
77.00069,95.75809,1.120662,0.9798071,3.790237
77.05122,92.57936,1.081288,0.9796425,3.790237
77.10003,90.92643,1.031178,0.9798071,3.790237
77.14973,88.89205,0.9703294,0.9798071,3.796696
77.19958,87.62056,0.9202195,0.9798071,3.790237
77.25022,84.82329,0.8092598,0.9798071,3.790237
77.30148,82.15317,0.730516,0.9798071,3.790237
77.35017,95.37663,0.6410321,0.9798071,3.783778
77.40022,153.865,0.608819,0.9798071,3.783778
77.44973,147.1261,0.5766045,0.9798071,3.783778
77.4996,133.0126,0.5193365,0.9799718,3.783778
77.55068,131.2325,0.4513285,0.9799718,3.783778
77.60021,128.181,0.3940605,0.9798071,3.783778
77.65019,118.6448,0.3725846,0.9798071,3.783778
77.70019,118.6448,0.3475283,0.9798071,3.783778
77.75018,119.0263,0.3296329,0.9798071,3.783778
77.80173,107.71,0.3117361,0.9798071,3.777318
77.85019,104.5313,0.2974184,0.9798071,3.777318
77.89999,101.4798,0.2831008,0.9798071,3.783778
77.94973,99.31824,0.2580458,0.9798071,3.777318
77.99989,96.52097,0.2186732,0.9798071,3.777318
78.05071,94.2323,0.1864601,0.9796425,3.783778
78.10044,91.56216,0.1614051,0.9799718,3.783778
78.15031,89.5278,0.1077148,0.9799718,3.777318
78.20031,86.09478,0.0397082,0.9798071,3.783778
78.24971,84.95044,0.02896961,0.9798071,3.777318
78.30105,84.18755,0.01465326,0.9798071,3.777318
78.34961,81.13599,-0.1106228,0.9799718,3.777318
78.3996,88.12916,-0.214423,0.9798071,3.777318
78.45042,147.6347,-0.2716923,0.9796425,3.777318
78.50017,150.8134,-0.2967473,0.9798071,3.777318
78.55106,135.6828,-0.3289617,0.9799718,3.777318
78.60048,133.7755,-0.3468572,0.9796425,3.777318
78.65028,133.9027,-0.3575958,0.9796425,3.777318
78.69973,122.8407,-0.3540167,0.9798071,3.777318
78.75056,120.5521,-0.3432781,0.9798071,3.777318
78.80072,120.0435,-0.3182231,0.9798071,3.777318
78.85002,115.5933,-0.3003264,0.9798071,3.777318
78.90056,106.0571,-0.2752714,0.9798071,3.777318
78.95048,104.1499,-0.243057,0.9798071,3.777318
78.99968,101.6069,-0.2036857,0.9798071,3.777318
79.0511,98.55534,-0.1213614,0.9798071,3.777318
79.10057,97.02956,-0.003243508,0.9798071,3.777318
79.14995,93.46941,0.1757215,0.9799718,3.777318
79.20082,91.05358,0.3224734,0.9798071,3.783778
79.24995,88.00201,0.3940605,0.9798071,3.783778
79.30081,86.47623,0.4978606,0.9798071,3.777318
79.35007,85.33189,0.608819,0.9798071,3.783778
79.39968,83.80611,0.6446125,0.9798071,3.783778
79.45029,80.62739,0.6517707,0.9798071,3.783778
79.5002,99.82683,0.6696675,0.9796425,3.777318
79.55148,154.5007,0.7090401,0.9798071,3.783778
79.59968,145.7275,0.7555709,0.9798071,3.777318
79.65068,137.4628,0.7806258,0.9798071,3.777318
79.70032,132.7583,0.8235775,0.9798071,3.777318
79.75004,130.724,0.8880051,0.9799718,3.777318
79.80097,120.5521,0.9667503,0.9799718,3.777318
79.84965,119.662,1.052654,0.9798071,3.783778
79.89993,119.7892,1.095605,0.9798071,3.770859
79.95052,114.1946,1.134978,0.9799718,3.777318
80.00047,108.0915,1.185088,0.9798071,3.777318
80.05116,103.7684,1.217301,0.9798071,3.777318
80.10072,101.6069,1.235198,0.9796425,3.777318
80.15079,99.19109,1.260253,0.9799718,3.777318
80.20072,97.28386,1.270991,0.9799718,3.777318
80.25018,94.74089,1.285308,0.9798071,3.777318
80.30116,91.30788,1.288888,0.9798071,3.770859
80.35005,90.03638,1.28173,0.9798071,3.770859
80.40001,88.38345,1.28173,0.9799718,3.777318
80.44978,85.20473,1.23162,0.9798071,3.770859
80.50053,82.66177,1.12782,0.9798071,3.777318
80.5518,94.61374,1.066971,0.9798071,3.770859
80.59972,131.614,1.034757,0.9798071,3.770859
80.64976,152.3392,0.9667503,0.9799718,3.777318
80.70072,128.0538,0.8951632,0.9798071,3.770859
80.75064,126.9095,0.8378952,0.9798071,3.770859
80.80145,121.8235,0.787784,0.9798071,3.770859
80.85018,119.0263,0.762729,0.9796425,3.7644
80.89986,118.2634,0.734095,0.9798071,3.770859
80.9501,117.8819,0.7161983,0.9798071,3.7644
80.99992,106.4386,0.6911433,0.9798071,3.770859
81.0509,104.6585,0.6446125,0.9796425,3.7644
81.10072,100.844,0.6052399,0.9796425,3.7644
81.15019,98.9368,0.5766045,0.9798071,3.7644
81.20027,97.28386,0.5443915,0.9798071,3.7644
81.25027,94.61374,0.5050188,0.9798071,3.7644
81.30128,92.32506,0.4298527,0.9798071,3.7644
81.35042,90.03638,0.3582669,0.9799718,3.7644
81.40017,88.38345,0.3439492,0.9798071,3.7644
81.45016,86.22193,0.3117361,0.9796425,3.7644
81.50039,82.66177,0.1900392,0.9798071,3.7644
81.5518,89.2735,0.00391467,0.9796425,3.7644
81.59979,112.4145,-0.08556783,0.9798071,3.7644
81.64996,155.1365,-0.1249405,0.9798071,3.7644
81.70008,136.1913,-0.1750503,0.9798071,3.7644
81.75008,135.1741,-0.2072648,0.9799718,3.7644
81.80104,133.5212,-0.2609538,0.9799718,3.7644
81.85088,121.9507,-0.2752714,0.9798071,3.7644
81.90067,120.2978,-0.2788505,0.9798071,3.757941
81.95051,119.7892,-0.2788505,0.9798071,3.757941
82.00053,117.3734,-0.2752714,0.9799718,3.757941
82.0518,107.71,-0.2752714,0.9798071,3.7644
82.10022,106.6929,-0.2716923,0.9798071,3.7644
82.14989,101.6069,-0.2788505,0.9798071,3.7644
82.19971,100.0811,-0.2788505,0.9798071,3.7644
82.25079,97.79247,-0.2681133,0.9796425,3.7644
82.30186,95.50377,-0.2573747,0.9798071,3.7644
82.35063,92.32506,-0.2645342,0.9799718,3.7644
82.40053,90.29069,-0.2645342,0.9799718,3.7644
82.45056,88.89205,-0.1822098,0.9798071,3.7644
82.50023,87.36626,-0.09988551,0.9799718,3.7644
82.55113,83.04321,-0.08914693,0.9798071,3.7644
82.60012,84.0604,-0.0569338,0.9798071,3.770859
82.65024,91.81647,0.01465326,0.9798071,3.770859
82.69971,146.8718,0.1435084,0.9798071,3.770859
82.75078,136.6999,0.2759426,0.9798071,3.770859
82.80179,134.7927,0.3797428,0.9798071,3.7644
82.85039,135.1741,0.4656462,0.9798071,3.770859
82.8997,122.5864,0.5443915,0.9798071,3.770859
82.95029,121.6964,0.6195562,0.9799718,3.770859
83.00003,122.0779,0.6839838,0.9799718,3.777318
83.05092,116.9919,0.7484114,0.9798071,3.770859
83.10003,109.6173,0.787784,0.9798071,3.777318
83.14979,105.6757,0.8235775,0.9798071,3.777318
83.20038,103.6413,0.8808469,0.9798071,3.777318
83.25064,101.8612,0.9237986,0.9799718,3.777318
83.30135,99.31824,1.002542,0.9796425,3.777318
83.34991,96.90242,1.092026,0.9798071,3.777318
83.39978,93.34225,1.12782,0.9798071,3.783778
83.4509,91.94361,1.149294,0.9798071,3.783778
83.50026,90.54498,1.195827,0.9798071,3.783778
83.55141,87.49342,1.210143,0.9798071,3.783778
83.60015,85.33189,1.170772,0.9799718,3.783778
83.65015,85.96764,1.142136,0.9798071,3.783778
83.70051,141.1501,1.152875,0.9798071,3.783778
83.74992,152.8478,1.163613,0.9798071,3.783778
83.8014,135.1741,1.156453,0.9798071,3.783778
83.8502,131.9954,1.152875,0.9796425,3.777318
83.90074,130.4697,1.142136,0.9796425,3.783778
83.9507,119.0263,1.134978,0.9798071,3.783778
84.00065,118.5177,1.134978,0.9798071,3.783778
84.05088,121.4421,1.120662,0.9798071,3.783778
84.10093,115.2118,1.106343,0.9798071,3.783778
84.15065,107.71,1.084867,0.9799718,3.783778
84.20068,105.6757,1.052654,0.9798071,3.783778
84.25066,102.7513,1.031178,0.9798071,3.783778
84.30141,100.3354,0.9953843,0.9798071,3.783778
84.35023,98.9368,0.9595909,0.9798071,3.783778
84.40015,95.37663,0.8880051,0.9798071,3.783778
84.45015,93.08795,0.8164194,0.9796425,3.777318
84.49994,91.81647,0.7698872,0.9798071,3.783778
84.55167,89.2735,0.75915,0.9798071,3.783778
84.60094,84.82329,0.6553498,0.9798071,3.783778
84.64995,84.44184,0.5479705,0.9798071,3.783778
84.69994,99.06393,0.4549089,0.9799718,3.777318
84.75045,153.9921,0.4012186,0.9799718,3.783778
84.80151,136.5728,0.3546878,0.9798071,3.777318
84.84994,134.157,0.3153152,0.9798071,3.777318
84.9009,132.1226,0.2687844,0.9798071,3.777318
84.9502,123.2222,0.2043568,0.9798071,3.777318
85.00049,119.4077,0.1470875,0.9798071,3.777318
85.05119,119.5349,0.08265991,0.9798071,3.777318
85.0999,114.7032,0.0397082,0.9798071,3.777318
85.15018,110.8888,-0.003243508,0.9798071,3.777318
85.1999,103.7684,-0.03903704,0.9798071,3.777318
85.25101,103.2598,-0.08914693,0.9798071,3.777318
85.3019,100.9712,-0.1249405,0.9798071,3.777318
85.3502,98.55534,-0.1499954,0.9799718,3.770859
85.40011,94.99519,-0.1750503,0.9796425,3.777318
85.45044,92.83366,-0.2358988,0.9796425,3.770859
85.50065,90.67213,-0.2931682,0.9798071,3.777318
85.55166,89.14634,-0.2752714,0.9799718,3.777318
85.60041,87.62056,-0.3003264,0.9798071,3.777318
85.64998,85.58618,-0.4399201,0.9798071,3.777318
85.70065,89.5278,-0.561617,0.9799718,3.770859
85.75028,147.5076,-0.6188851,0.9799718,3.770859
85.80114,151.9578,-0.6475204,0.9798071,3.770859
85.84989,138.9886,-0.686893,0.9796425,3.770859
85.90094,136.5728,-0.6976303,0.9798071,3.770859
85.9505,135.4285,-0.7083689,0.9798071,3.770859
85.99994,123.2222,-0.6940513,0.9799718,3.770859
86.05114,122.4593,-0.6296237,0.9796425,3.770859
86.10051,122.205,-0.5866719,0.9796425,3.7644
86.15024,116.229,-0.5115058,0.9798071,3.770859
86.1999,111.5245,-0.3754925,0.9799718,3.770859
86.25023,105.6757,-0.2466374,0.9796425,3.7644
86.30132,104.6585,-0.1392581,0.9796425,3.7644
86.34991,101.0983,0.007493759,0.9799718,3.770859
86.40089,98.80965,0.1971973,0.9798071,3.7644
86.45089,95.37663,0.3546878,0.9796425,3.7644
86.5001,93.85085,0.4370122,0.9798071,3.7644
86.55175,92.19792,0.5443915,0.9798071,3.7644
86.59993,90.92643,0.6410321,0.9798071,3.7644
86.64994,89.2735,0.662508,0.9796425,3.770859
86.70043,84.44184,0.6696675,0.9798071,3.7644
86.75011,88.38345,0.6768256,0.9798071,3.7644
86.80126,135.047,0.7233564,0.9798071,3.7644
86.84993,154.5007,0.762729,0.9798071,3.7644
86.90093,136.5728,0.787784,0.9796425,3.7644
86.95036,134.6656,0.8199984,0.9798071,3.7644
87.00039,134.4113,0.8701083,0.9798071,3.7644
87.05088,123.7308,0.9237986,0.9796425,3.7644
87.09978,123.2222,1.013281,0.9798071,3.770859
87.15061,124.8751,1.092026,0.9798071,3.7644
87.20001,117.3734,1.134978,0.9799718,3.7644
87.25089,112.2874,1.174349,0.9798071,3.7644
87.30171,107.8372,1.210143,0.9796425,3.7644
87.34976,106.4386,1.22804,0.9798071,3.7644
87.40061,102.3698,1.253095,0.9799718,3.770859
87.45062,101.0983,1.267414,0.9798071,3.770859
87.50053,98.42819,1.267414,0.9798071,3.7644
87.55138,94.74089,1.256675,0.9798071,3.770859
87.60034,92.96081,1.245936,0.9796425,3.770859
87.65018,92.19792,1.238778,0.9798071,3.770859
87.7003,87.23911,1.152875,0.9796425,3.7644
87.75009,85.71333,1.070551,0.9798071,3.7644
87.80092,108.7272,1.027599,0.9798071,3.770859
87.85056,152.3392,0.9774876,0.9798071,3.770859
87.9003,136.6999,0.8915842,0.9796425,3.770859
87.95017,132.8855,0.8772678,0.9798071,3.7644
88.00064,130.8511,0.8343161,0.9799718,3.770859
88.05173,123.095,0.8021017,0.9796425,3.770859
88.10043,118.6448,0.7770467,0.9798071,3.770859
88.15053,119.1534,0.7519918,0.9799718,3.770859
88.20105,112.6688,0.7376741,0.9798071,3.7644
88.25073,109.8716,0.7197773,0.9798071,3.7644
88.30118,104.7856,0.6660884,0.9798071,3.7644
88.35017,102.1155,0.6159772,0.9799718,3.770859
88.40084,101.4798,0.5909222,0.9796425,3.7644
88.45024,98.80965,0.5801836,0.9798071,3.770859
88.50064,96.64812,0.5479705,0.9798071,3.770859
88.5519,93.46941,0.4620671,0.9798071,3.7644
88.6003,92.19792,0.4083768,0.9798071,3.770859
88.65018,91.18073,0.3940605,0.9796425,3.770859
88.70089,88.00201,0.3439492,0.9798071,3.7644
88.7509,84.95044,0.2544667,0.9798071,3.7644
88.80142,90.41783,0.08981808,0.9796425,3.7644
88.85017,139.6244,0.01107417,0.9798071,3.770859
88.90028,151.5763,-0.03545795,0.9798071,3.7644
88.94987,138.9886,-0.07483057,0.9798071,3.7644
88.99999,137.3357,-0.1070437,0.9798071,3.7644
89.05116,135.047,-0.160734,0.9798071,3.7644
89.09991,123.2222,-0.189368,0.9798071,3.7644
89.14985,121.6964,-0.2036857,0.9798071,3.7644
89.20071,120.9335,-0.214423,0.9798071,3.7644
89.25005,112.4145,-0.2358988,0.9796425,3.757941
89.30116,108.4729,-0.2573747,0.9798071,3.757941
89.35004,106.82,-0.2716923,0.9798071,3.7644
89.40006,103.7684,-0.2931682,0.9798071,3.7644
89.45004,101.0983,-0.3074859,0.9796425,3.7644
89.50047,98.80965,-0.3039055,0.9798071,3.757941
89.55141,96.13953,-0.311065,0.9798071,3.7644
89.60061,93.72369,-0.3647539,0.9799718,3.757941
89.65073,92.19792,-0.3898089,0.9798071,3.757941
89.70062,91.18073,-0.2967473,0.9798071,3.757941
89.75063,88.00201,-0.2931682,0.9798071,3.757941
89.80122,83.93326,-0.3540167,0.9798071,3.7644
89.85084,98.6825,-0.4005475,0.9798071,3.757941
89.90104,152.7207,-0.2967473,0.9798071,3.757941
89.95089,151.9578,-0.1965262,0.9798071,3.757941
90.00045,137.3357,-0.0569338,0.9796425,3.757941
90.05096,135.4285,0.1112939,0.9798071,3.757941
90.10054,135.047,0.2902603,0.9798071,3.757941
90.15054,123.7308,0.3940605,0.9798071,3.757941
90.19981,122.8407,0.5157561,0.9799718,3.757941
90.25085,122.205,0.608819,0.9798071,3.751482
90.30102,111.5245,0.6732466,0.9796425,3.757941
90.35039,110.6345,0.7269355,0.9798071,3.757941
90.40057,105.1671,0.7734677,0.9798071,3.757941
90.45024,103.1327,0.8056808,0.9796425,3.757941
90.50074,100.844,0.8522115,0.9796425,3.757941
90.55202,98.42819,0.9273777,0.9798071,3.751482
90.60033,96.64812,1.013281,0.9798071,3.757941
90.65029,94.10515,1.095605,0.9799718,3.757941
90.70097,91.43503,1.138556,0.9798071,3.757941
90.7506,90.03638,1.199404,0.9798071,3.757941
90.80157,86.47623,1.202985,0.9798071,3.751482
90.85041,83.80611,1.185088,0.9798071,3.757941
90.90084,103.1327,1.185088,0.9796425,3.757941
90.95083,149.7962,1.210143,0.9798071,3.757941
91.00011,147.2533,1.220881,0.9799718,3.757941
91.05177,133.9027,1.235198,0.9796425,3.751482
91.10023,131.1054,1.249517,0.9798071,3.757941
91.15095,130.724,1.245936,0.9799718,3.757941
91.20061,119.2806,1.249517,0.9798071,3.751482
91.24987,118.8991,1.242356,0.9798071,3.751482
91.30101,119.662,1.22804,0.9798071,3.751482
91.35065,111.2702,1.213723,0.9798071,3.751482
91.40024,104.5313,1.195827,0.9798071,3.751482
91.45065,103.1327,1.163613,0.9796425,3.751482
91.5006,100.844,1.138556,0.9796425,3.751482
91.55145,99.69969,1.131398,0.9799718,3.751482
91.60015,96.90242,1.106343,0.9798071,3.757941
91.65013,96.77527,1.049075,0.9798071,3.757941
91.70087,92.45221,1.013281,0.9798071,3.751482
91.75087,91.30788,0.9918053,0.9799718,3.751482
91.80196,88.12916,0.8987437,0.9798071,3.751482
91.85036,84.82329,0.7484114,0.9798071,3.757941
91.90036,85.45904,0.6768256,0.9798071,3.751482
91.94994,126.7823,0.6123981,0.9799718,3.751482
92.00069,149.4148,0.5873432,0.9798071,3.751482
92.05136,135.047,0.5264947,0.9798071,3.751482
92.09988,132.7583,0.458488,0.9798071,3.751482
92.14986,131.614,0.4047977,0.9798071,3.751482
92.19989,121.4421,0.3690042,0.9799718,3.751482
92.25092,119.4077,0.3403701,0.9798071,3.751482
92.30184,119.4077,0.3117361,0.9798071,3.751482
92.3506,112.4145,0.2902603,0.9798071,3.757941
92.4006,107.2015,0.2652053,0.9798071,3.751482
92.44993,103.8956,0.2186732,0.9798071,3.751482
92.49981,101.9884,0.1649842,0.9798071,3.757941
92.55185,99.31824,0.1184534,0.9799718,3.751482
92.6007,96.64812,0.1005567,0.9798071,3.751482
92.65021,95.12233,0.0397082,0.9798071,3.751482
92.70012,92.57936,-0.05335471,0.9796425,3.757941
92.75013,90.79928,-0.1070437,0.9799718,3.757941
92.80187,88.00201,-0.1034646,0.9798071,3.751482
92.84997,85.71333,-0.2072648,0.9798071,3.757941
92.89993,82.66177,-0.3325408,0.9796425,3.757941
92.94994,120.0435,-0.4470783,0.9799718,3.757941
93.0007,155.6451,-0.4792927,0.9798071,3.757941
93.05107,153.1021,-0.49003,0.9798071,3.757941
93.10059,137.4628,-0.5115058,0.9798071,3.757941
93.15073,135.047,-0.5437202,0.9799718,3.757941
93.20058,130.4697,-0.5508785,0.9798071,3.757941
93.24993,121.5692,-0.5508785,0.9798071,3.757941
93.30108,121.315,-0.5007685,0.9798071,3.757941
93.35089,120.5521,-0.4506573,0.9799718,3.757941
93.40089,111.3974,-0.4005475,0.9798071,3.757941
93.45056,105.6757,-0.339699,0.9798071,3.757941
93.50082,102.3698,-0.2824296,0.9799718,3.7644
93.55187,100.3354,-0.1965262,0.9796425,3.7644
93.6002,99.57254,-0.03545795,0.9796425,3.7644
93.6501,97.66531,0.1399293,0.9798071,3.7644
93.70097,92.32506,0.2938394,0.9798071,3.7644
93.7499,91.56216,0.3833219,0.9799718,3.7644
93.80109,88.7649,0.5193365,0.9798071,3.770859
93.85061,87.23911,0.5945013,0.9798071,3.7644
93.90006,84.0604,0.6195562,0.9798071,3.7644
93.95094,88.00201,0.6302949,0.9798071,3.7644
94.00047,125.638,0.662508,0.9798071,3.770859
94.05157,145.346,0.7197773,0.9798071,3.770859
94.10032,134.7927,0.7555709,0.9798071,3.770859
94.15108,133.5212,0.7842049,0.9798071,3.770859
94.2003,133.1398,0.8235775,0.9798071,3.770859
94.25107,121.315,0.8951632,0.9798071,3.777318
94.30125,120.5521,0.9774876,0.9798071,3.777318
94.35003,120.6792,1.066971,0.9799718,3.777318
94.40058,111.906,1.106343,0.9799718,3.777318
94.4506,108.4729,1.145717,0.9796425,3.777318
94.50032,104.5313,1.192246,0.9798071,3.777318
94.55138,103.0055,1.217301,0.9798071,3.777318
94.60099,100.3354,1.249517,0.9798071,3.783778
94.65087,99.19109,1.270991,0.9798071,3.783778
94.69996,96.64812,1.299627,0.9796425,3.783778
94.75072,92.7065,1.33184,0.9798071,3.783778
94.80086,91.81647,1.353317,0.9796425,3.783778
94.85006,88.89205,1.324682,0.9798071,3.790237
94.90047,84.569,1.238778,0.9798071,3.790237
94.95034,88.38345,1.195827,0.9799718,3.790237
95.0006,133.0126,1.160033,0.9798071,3.790237
95.05132,139.1158,1.120662,0.9798071,3.790237
95.10036,131.614,1.102764,0.9796425,3.790237
95.15034,129.4525,1.084867,0.9798071,3.790237
95.19994,125.2566,1.052654,0.9798071,3.790237
95.25006,117.119,1.041915,0.9798071,3.796696
95.302,117.119,1.038336,0.9796425,3.796696
95.35023,119.7892,1.027599,0.9798071,3.796696
95.40022,108.8544,1.020439,0.9699246,3.796696
95.45093,104.7856,1.002542,0.9699246,3.796696
95.50112,102.3698,0.9774876,0.9699246,3.796696
95.55186,99.95398,0.9488536,0.9697599,3.796696
95.60058,98.42819,0.9059018,0.9697599,3.796696
95.65102,96.26666,0.8450534,0.9697599,3.796696
95.70112,93.08795,0.7698872,0.9699246,3.803155
95.75085,90.79928,0.7448323,0.9697599,3.803155
95.80163,89.65494,0.7269355,0.9697599,3.803155
95.8505,84.95044,0.6231366,0.9697599,3.803155
95.89994,86.47623,0.5050188,0.9699246,3.803155
95.95008,131.1054,0.4334331,0.9699246,3.803155
95.99995,155.3908,0.3976395,0.9697599,3.803155
96.0518,140.5144,0.3439492,0.9697599,3.803155
96.10088,134.6656,0.308157,0.9697599,3.803155
96.15057,132.7583,0.2723635,0.9699246,3.803155
96.20071,124.2394,0.2294118,0.9697599,3.803155
96.25058,120.5521,0.1900392,0.9697599,3.803155
96.30141,120.1706,0.1291907,0.9697599,3.803155
96.35013,115.5933,0.06834223,0.9697599,3.803155
96.40051,111.0159,0.02181143,0.9699246,3.809614
96.45062,103.7684,-0.02829845,0.9699246,3.803155
96.50015,102.3698,-0.08198874,0.9699246,3.803155
96.551,99.57254,-0.1106228,0.9699246,3.803155
96.60081,97.28386,-0.1320986,0.9697599,3.803155
96.65002,94.61374,-0.1965262,0.9697599,3.803155
96.70116,91.94361,-0.2466374,0.9697599,3.803155
96.75033,91.43503,-0.2358988,0.9699246,3.803155
96.80094,87.87486,-0.2645342,0.9699246,3.803155
96.851,83.80611,-0.4005475,0.9697599,3.809614
96.90046,85.20473,-0.5258235,0.9697599,3.809614
96.95045,112.9231,-0.5902511,0.9697599,3.803155
97.00046,152.975,-0.6009883,0.9697599,3.803155
97.0515,138.9886,-0.6296237,0.9699246,3.803155
97.10101,136.6999,-0.6367819,0.9699246,3.803155
97.15059,135.937,-0.6367819,0.9697599,3.809614
97.2005,122.8407,-0.6188851,0.9697599,3.803155
97.25083,121.0607,-0.5902511,0.9697599,3.803155
97.30146,121.0607,-0.4971895,0.9697599,3.809614
97.34995,117.8819,-0.3540167,0.9699246,3.809614
97.39995,107.9643,-0.2036857,0.9697599,3.809614
97.45042,104.7856,-0.03187754,0.9699246,3.809614
97.49996,101.8612,0.1506666,0.9697599,3.809614
97.55207,100.3354,0.3546878,0.9697599,3.809614
97.60082,97.66531,0.4513285,0.9697599,3.809614
97.65108,97.02956,0.5443915,0.9697599,3.809614
97.69996,93.08795,0.6195562,0.9695953,3.809614
97.75045,91.05358,0.6875643,0.9699246,3.809614
97.80145,89.65494,0.7090401,0.9699246,3.816073
97.85108,84.18755,0.7233564,0.9699246,3.816073
97.9007,92.57936,0.734095,0.9697599,3.816073
97.95017,150.1777,0.7698872,0.9697599,3.816073
98.00113,145.6003,0.787784,0.9699246,3.809614
98.05122,135.8099,0.8450534,0.9697599,3.809614
98.10054,133.9027,0.9345359,0.9699246,3.816073
98.15078,131.3597,1.013281,0.9697599,3.809614
98.20042,122.0779,1.063391,0.9697599,3.809614
98.25105,121.315,1.106343,0.9699246,3.816073
98.3014,121.8235,1.149294,0.9697599,3.816073
98.35079,112.6688,1.195827,0.9697599,3.816073
98.40062,107.9643,1.224459,0.9697599,3.809614
98.44994,104.5313,1.245936,0.9697599,3.809614
98.50044,102.6241,1.274572,0.9699246,3.816073
98.55116,100.2083,1.321101,0.9697599,3.816073
98.60023,98.80965,1.33184,0.9697599,3.816073
98.65022,96.90242,1.313943,0.9697599,3.816073
98.70007,94.2323,1.310365,0.9697599,3.816073
98.75085,91.56216,1.270991,0.9697599,3.816073
98.80211,87.23911,1.170772,0.9697599,3.816073
98.85056,88.38345,1.095605,0.9697599,3.816073
98.90002,144.8374,1.077709,0.9697599,3.816073
98.95084,151.0677,1.045496,0.9697599,3.816073
99.00027,134.2841,1.013281,0.9697599,3.816073
99.0519,131.9954,0.9918053,0.9697599,3.816073
99.10078,129.1982,0.9560117,0.9697599,3.809614
99.15002,120.1706,0.9273777,0.9699246,3.816073
99.20102,119.4077,0.8629501,0.9697599,3.816073
99.25082,120.5521,0.8128389,0.9697599,3.816073
99.30189,112.1602,0.7734677,0.9697599,3.816073
99.35111,106.4386,0.7519918,0.9699246,3.809614
99.40106,103.6413,0.730516,0.9796425,3.816073
99.45094,101.4798,0.7161983,0.9799718,3.816073
99.50082,99.19109,0.7054597,0.9798071,3.816073
99.55111,97.28386,0.6267158,0.9798071,3.816073
99.60079,94.99519,0.5694464,0.9799718,3.822533
99.65055,94.61374,0.5515496,0.9798071,3.816073
99.70016,92.7065,0.5085979,0.9796425,3.816073
99.75083,87.87486,0.3833219,0.9798071,3.822533
99.80143,85.71333,0.2866812,0.9798071,3.822533
99.85011,100.3354,0.2150941,0.9796425,3.822533
99.90031,155.3908,0.1077148,0.9798071,3.822533
99.95078,140.1329,0.03612911,0.9798071,3.828992
100.0006,137.7171,-0.02114027,0.9798071,3.828992
100.0513,136.4456,-0.08914693,0.9798071,3.828992
100.1009,124.4937,-0.1285195,0.9798071,3.828992
100.15,122.5864,-0.160734,0.9798071,3.828992
100.2011,122.5864,-0.1965262,0.9798071,3.828992
100.2511,118.5177,-0.2323197,0.9796425,3.835451
100.3019,111.1431,-0.2788505,0.9798071,3.84191
100.3501,106.3114,-0.3003264,0.9799718,3.835451
100.4001,103.0055,-0.3432781,0.9798071,3.835451
100.4509,101.4798,-0.3540167,0.9799718,3.84191
100.5006,97.66531,-0.3969684,0.9798071,3.84191
100.5518,96.64812,-0.4721332,0.9798071,3.848369
100.6004,94.10515,-0.5079268,0.9798071,3.848369
100.6506,93.85085,-0.4434992,0.9796425,3.848369
100.7011,88.7649,-0.4327606,0.9798071,3.848369
100.7504,85.58618,-0.4613959,0.9798071,3.854828
100.8018,92.83366,-0.4828718,0.9798071,3.854828
100.8504,116.9919,-0.3790716,0.9796425,3.848369
100.9,146.1089,-0.243057,0.9798071,3.854828
100.9511,142.1673,-0.1070437,0.9798071,3.854828
101.0004,139.8786,0.05402588,0.9798071,3.854828
101.0513,137.7171,0.2186732,0.9798071,3.861288
101.1001,125.2566,0.3475283,0.9798071,3.861288
101.1508,124.4937,0.4728044,0.9798071,3.861288
101.202,124.4937,0.5980804,0.9798071,3.861288
101.2505,115.4661,0.6589289,0.9798071,3.861288
101.3018,110.7616,0.7126192,0.9796425,3.861288
101.3503,105.5485,0.7698872,0.9798071,3.861288
101.4008,103.387,0.8092598,0.9796425,3.861288
101.4517,101.4798,0.8522115,0.9796425,3.867747
101.5011,99.44539,0.91306,0.9798071,3.867747
101.5516,96.01237,0.9739085,0.9798071,3.867747
101.6004,95.24948,1.052654,0.9798071,3.867747
101.65,92.96081,1.134978,0.9798071,3.867747
101.7022,88.00201,1.131398,0.9796425,3.867747
101.7501,86.09478,1.120662,0.9799718,3.867747
101.8018,102.3698,1.138556,0.9798071,3.874206
101.8503,155.5179,1.174349,0.9798071,3.874206
101.9002,138.9886,1.202985,0.9798071,3.874206
101.9519,136.5728,1.22804,0.9798071,3.874206
102.0005,135.047,1.242356,0.9798071,3.867747
102.052,123.3493,1.253095,0.9798071,3.874206
102.1009,122.3321,1.260253,0.9798071,3.874206
102.1508,122.7136,1.260253,0.9798071,3.874206
102.202,123.4765,1.245936,0.9799718,3.874206
102.25,111.5245,1.235198,0.9798071,3.874206
102.301,106.9472,1.213723,0.9796425,3.880665
102.3501,104.277,1.195827,0.9798071,3.874206
102.4005,102.2427,1.185088,0.9798071,3.874206
102.4517,100.0811,1.156453,0.9796425,3.874206
102.5002,98.30104,1.102764,0.9798071,3.880665
102.5521,94.99519,1.056233,0.9798071,3.880665
102.6005,93.34225,1.041915,0.9799718,3.880665
102.6507,92.19792,0.91306,0.9799718,3.880665
102.7019,86.47623,0.75915,0.9796425,3.880665
102.7504,90.03638,0.7018806,0.9798071,3.880665
102.801,156.5351,0.6517707,0.9798071,3.880665
102.8508,150.3048,0.6016595,0.9799718,3.880665
102.9002,137.3357,0.5622882,0.9799718,3.880665
102.952,134.6656,0.4942802,0.9796425,3.887124
103.0005,127.5452,0.4477494,0.9798071,3.880665
103.0517,122.0779,0.4370122,0.9798071,3.887124
103.1002,121.4421,0.4155363,0.9798071,3.880665
103.1508,121.315,0.3761637,0.9798071,3.880665
103.2015,110.1259,0.3511087,0.9798071,3.880665
103.2512,106.9472,0.3224734,0.9799718,3.880665
103.301,102.7513,0.308157,0.9798071,3.880665
103.3511,101.0983,0.2974184,0.9798071,3.880665
103.401,96.90242,0.2759426,0.9799718,3.880665
103.4515,95.63092,0.1864601,0.9798071,3.880665
103.5002,92.57936,0.07908082,0.9796425,3.880665
103.5513,91.56216,0.06118405,0.9796425,3.880665
103.6008,88.7649,-0.006822597,0.9798071,3.880665
103.6511,87.49342,-0.1535745,0.9798071,3.880665
103.7021,89.14634,-0.2716923,0.9798071,3.880665
103.7502,124.6208,-0.3540167,0.9798071,3.880665
103.8016,149.7962,-0.3898089,0.9798071,3.880665
103.8501,138.0986,-0.4542364,0.9796425,3.874206
103.9002,136.5728,-0.4864509,0.9798071,3.880665
103.9513,136.1913,-0.5508785,0.9796425,3.880665
104.001,122.8407,-0.5830929,0.9796425,3.880665
104.0516,121.6964,-0.5938302,0.9799718,3.880665
104.1002,120.9335,-0.5866719,0.9798071,3.880665
104.1508,114.7032,-0.5830929,0.9798071,3.880665
104.2012,108.6001,-0.5759334,0.9798071,3.880665
104.2506,105.6757,-0.5365608,0.9798071,3.880665
104.3014,100.4626,-0.4613959,0.9796425,3.880665
104.3501,98.80965,-0.3003264,0.9799718,3.880665
104.4005,97.28386,-0.1678922,0.9796425,3.887124
104.452,94.35944,-0.01756118,0.9799718,3.880665
104.5008,91.94361,0.1506666,0.9798071,3.887124
104.5518,90.03638,0.3546878,0.9796425,3.887124
104.6009,87.62056,0.4083768,0.9799718,3.887124
104.6506,85.33189,0.4513285,0.9798071,3.887124
104.7015,90.92643,0.5193365,0.9798071,3.887124
104.7512,142.5488,0.6016595,0.9796425,3.887124
104.8018,143.4388,0.6517707,0.9798071,3.887124
104.8503,138.8615,0.6983015,0.9798071,3.893583
104.9003,136.1913,0.7519918,0.9798071,3.887124
104.9521,134.6656,0.7770467,0.9798071,3.893583
105.0005,121.9507,0.8378952,0.9799718,3.893583
105.0518,121.0607,0.9309568,0.9798071,3.893583
105.101,120.5521,1.031178,0.9796425,3.893583
105.1511,110.253,1.099185,0.9798071,3.893583
105.202,108.7272,1.138556,0.9798071,3.900043
105.2512,103.0055,1.195827,0.9798071,3.900043
105.3022,101.8612,1.23162,0.9796425,3.900043
105.3505,98.80965,1.260253,0.9798071,3.900043
105.4006,97.28386,1.292469,0.9798071,3.900043
105.4511,95.24948,1.324682,0.9798071,3.900043
105.5009,92.7065,1.349737,0.9798071,3.900043
105.5522,89.90925,1.346156,0.9796425,3.900043
105.6005,85.45904,1.274572,0.9798071,3.906502
105.6506,85.20473,1.22804,0.9798071,3.900043
105.7019,135.047,1.202985,0.9798071,3.900043
105.7506,149.9234,1.156453,0.9798071,3.906502
105.8016,134.157,1.113501,0.9798071,3.906502
105.8502,131.9954,1.099185,0.9798071,3.906502
105.9012,127.6724,1.070551,0.9798071,3.900043
105.9517,117.3734,1.052654,0.9796425,3.906502
106.0001,117.3734,1.045496,0.9798071,3.906502
106.0518,118.772,1.027599,0.9798071,3.906502
106.1003,110.3802,1.013281,0.9798071,3.900043
106.1504,103.0055,0.9953843,0.9798071,3.900043
106.2016,101.9884,0.9667503,0.9796425,3.900043
106.2512,99.57254,0.9094809,0.9799718,3.906502
106.302,97.66531,0.8629501,0.9796425,3.906502
106.3503,95.63092,0.8021017,0.9798071,3.906502
106.4012,94.10515,0.7484114,0.9798071,3.900043
106.452,92.57936,0.7448323,0.9798071,3.906502
106.5004,88.7649,0.6660884,0.9796425,3.906502
106.5516,84.44184,0.5336528,0.9798071,3.906502
106.6003,90.67213,0.4298527,0.9798071,3.906502
106.6502,114.7032,0.3833219,0.9798071,3.900043
106.7021,148.7791,0.3511087,0.9798071,3.906502
106.7505,137.7171,0.3188943,0.9798071,3.900043
106.8015,135.047,0.2759426,0.9798071,3.900043
106.8503,131.4868,0.2258327,0.9798071,3.900043
106.9007,121.315,0.1864601,0.9798071,3.900043
106.9515,120.5521,0.1256116,0.9798071,3.900043
107.0009,120.0435,0.05402588,0.9798071,3.900043
107.0512,118.1362,-0.003243508,0.9796425,3.900043
107.1002,106.0571,-0.03903704,0.9798071,3.900043
107.1501,103.0055,-0.07840966,0.9798071,3.900043
107.2013,99.06393,-0.1034646,0.9798071,3.900043
107.2508,98.04675,-0.1428372,0.9798071,3.900043
107.302,95.24948,-0.2287406,0.9796425,3.906502
107.3508,93.34225,-0.2681133,0.9798071,3.906502
107.4006,91.81647,-0.243057,0.9796425,3.906502
107.452,88.00201,-0.311065,0.9796425,3.906502
107.5008,84.569,-0.4578168,0.9796425,3.906502
107.5516,88.63776,-0.5687752,0.9799718,3.906502
107.6003,138.0986,-0.5830929,0.9798071,3.906502
107.6504,158.0609,-0.5830929,0.9798071,3.906502
107.7016,139.6244,-0.6009883,0.9798071,3.906502
107.7502,137.2085,-0.6188851,0.9799718,3.906502
107.8023,127.5452,-0.6045687,0.9798071,3.912961
107.8505,122.0779,-0.5687752,0.9799718,3.906502
107.9013,121.6964,-0.4792927,0.9798071,3.906502
107.9523,121.315,-0.3218022,0.9798071,3.912961
108.0005,110.7616,-0.1714713,0.9798071,3.912961
108.0514,105.93,0.02181143,0.9798071,3.912961
108.1,101.8612,0.23657,0.9798071,3.906502
108.1513,99.57254,0.386901,0.9798071,3.912961
108.2022,98.30104,0.4835429,0.9799718,3.912961
108.2508,95.75809,0.5551287,0.9798071,3.912961
108.302,94.2323,0.6338739,0.9798071,3.91942
108.3505,92.57936,0.6947224,0.9798071,3.912961
108.4006,87.87486,0.7090401,0.9798071,3.912961
108.4522,84.82329,0.7161983,0.9798071,3.91942
108.5004,117.7548,0.7376741,0.9798071,3.91942
108.5516,158.5695,0.7734677,0.9799718,3.91942
108.6003,143.8203,0.7949435,0.9798071,3.91942
108.6505,139.2429,0.8450534,0.9798071,3.91942
108.7018,135.6828,0.9202195,0.9798071,3.91942
108.7506,127.6724,0.9953843,0.9796425,3.91942
108.8018,120.5521,1.07413,0.9798071,3.91942
108.8502,121.6964,1.120662,0.9798071,3.91942
108.9005,122.0779,1.167191,0.9798071,3.91942
108.9518,111.1431,1.217301,0.9798071,3.925879
109.0005,105.1671,1.242356,0.9798071,3.91942
109.0513,102.2427,1.267414,0.9798071,3.91942
109.1008,100.9712,1.296046,0.9798071,3.925879
109.1505,98.80965,1.33184,0.9798071,3.925879
109.2023,96.77527,1.33542,0.9798071,3.925879
109.2506,95.75809,1.324682,0.9799718,3.925879
109.3012,91.94361,1.288888,0.9798071,3.932338
109.3513,87.11198,1.195827,0.9799718,3.932338
109.4013,88.25631,1.109923,0.9799718,3.932338
109.4515,133.3941,1.084867,0.9798071,3.932338
109.5004,154.6279,1.052654,0.9796425,3.932338
109.5521,136.8271,1.020439,0.9798071,3.932338
109.6009,132.2497,0.9989635,0.9798071,3.932338
109.6509,130.3425,0.9703294,0.9798071,3.932338
109.7016,118.3905,0.9488536,0.9799718,3.932338
109.751,118.6448,0.8915842,0.9798071,3.938797
109.802,119.7892,0.8343161,0.9796425,3.938797
109.8506,111.1431,0.8056808,0.9798071,3.938797
109.9001,104.5313,0.7770467,0.9798071,3.938797
109.9522,103.0055,0.75915,0.9799718,3.938797
110.0005,100.2083,0.7519918,0.9798071,3.938797
110.0516,97.66531,0.7161983,0.9798071,3.938797
110.101,97.28386,0.6589289,0.9799718,3.945257
110.151,95.24948,0.6159772,0.9798071,3.938797
110.2019,93.34225,0.5801836,0.9798071,3.938797
110.2503,89.5278,0.4763848,0.9796425,3.938797
110.3015,87.62056,0.3690042,0.9799718,3.945257
110.3501,131.1054,0.308157,0.9798071,3.938797
110.401,157.298,0.2831008,0.9796425,3.945257
110.4517,141.4044,0.2401491,0.9798071,3.938797
110.501,136.8271,0.1864601,0.9798071,3.938797
110.5513,135.4285,0.1112939,0.9798071,3.938797
110.6011,122.8407,0.05402588,0.9798071,3.938797
110.6513,121.6964,0.00391467,0.9798071,3.938797
110.702,121.315,-0.0497743,0.9798071,3.938797
110.7508,120.0435,-0.1106228,0.9798071,3.938797
110.8017,109.9987,-0.1356777,0.9798071,3.938797
110.8503,107.0743,-0.1714713,0.9798071,3.938797
110.9009,101.8612,-0.1822098,0.9798071,3.938797
110.952,100.7169,-0.2287406,0.9796425,3.938797
111.0006,98.04675,-0.3039055,0.9798071,3.938797
111.0519,95.75809,-0.3468572,0.9798071,3.938797
111.1001,94.86804,-0.3289617,0.9796425,3.938797
111.151,90.03638,-0.4470783,0.9798071,3.945257
111.2023,86.60338,-0.5723543,0.9799718,3.945257
111.2507,99.44539,-0.6618368,0.9798071,3.938797
111.3015,158.4424,-0.7047885,0.9796425,3.945257
111.3507,145.2189,-0.7012094,0.9798071,3.938797
111.4004,140.7687,-0.7047885,0.9798071,3.938797
111.4518,139.3701,-0.6618368,0.9798071,3.945257
111.5011,128.3081,-0.6009883,0.9798071,3.945257
111.552,123.3493,-0.4434992,0.9798071,3.938797
111.6008,122.8407,-0.2609538,0.9798071,3.945257
111.6508,120.8064,-0.1177823,0.9796425,3.945257
111.7022,110.6345,0.07550173,0.9798071,3.945257
111.7504,108.7272,0.2795217,0.9798071,3.945257
111.8019,102.1155,0.4226945,0.9798071,3.945257
111.8511,100.5897,0.5587078,0.9798071,3.945257
111.901,99.44539,0.6410321,0.9796425,3.945257
111.9516,98.04675,0.6839838,0.9796425,3.951716
112.0004,95.37663,0.7555709,0.9799718,3.951716
112.0513,92.7065,0.7913631,0.9798071,3.951716
112.101,88.00201,0.7913631,0.9796425,3.951716
112.1511,111.1431,0.8021017,0.9798071,3.951716
112.202,156.9166,0.8343161,0.9796425,3.951716
112.2507,156.9166,0.8665292,0.9798071,3.951716
112.3021,140.5144,0.9416954,0.9796425,3.951716
112.3507,138.48,1.041915,0.9798071,3.951716
112.4004,135.047,1.106343,0.9798071,3.951716
112.4522,123.095,1.142136,0.9799718,3.951716
112.5008,122.9679,1.195827,0.9798071,3.951716
112.5521,123.7308,1.235198,0.9798071,3.951716
112.6008,117.5005,1.260253,0.9798071,3.951716
112.6511,112.2874,1.28173,0.9798071,3.958175
112.7014,107.5829,1.317523,0.9799718,3.951716
112.7509,102.8784,1.349737,0.9798071,3.958175
112.8018,100.5897,1.346156,0.9798071,3.958175
112.8505,99.44539,1.321101,0.9796425,3.958175
112.9012,97.28386,1.313943,0.9799718,3.958175
112.9518,92.83366,1.256675,0.9798071,3.958175
113.0012,88.38345,1.160033,0.9798071,3.958175
113.0514,98.80965,1.099185,0.9798071,3.964634
113.101,151.8306,1.07413,0.9798071,3.958175
113.1509,154.1193,1.038336,0.9798071,3.964634
113.2014,136.8271,1.013281,0.9798071,3.958175
113.2504,135.3013,0.9918053,0.9798071,3.958175
113.3021,124.2394,0.9667503,0.9798071,3.964634
113.3502,121.6964,0.9488536,0.9798071,3.964634
113.4012,121.315,0.8880051,0.9799718,3.964634
113.452,121.6964,0.8414743,0.9798071,3.964634
113.5006,109.9987,0.8092598,0.9799718,3.964634
113.5515,108.7272,0.7842049,0.9798071,3.964634
113.6014,103.387,0.7806258,0.9798071,3.971093
113.6504,101.2255,0.7698872,0.9796425,3.971093
113.7022,99.57254,0.7197773,0.9798071,3.971093
113.7506,96.90242,0.662508,0.9798071,3.971093
113.8019,96.01237,0.6302949,0.9798071,3.977553
113.8512,94.99519,0.5622882,0.9798071,3.977553
113.9014,87.11198,0.4477494,0.9798071,3.977553
113.952,99.19109,0.3403701,0.9798071,3.977553
114.0006,149.9234,0.2974184,0.9798071,3.984012
114.0516,153.6107,0.2759426,0.9798071,3.984012
114.1007,142.0402,0.2437295,0.9796425,3.984012
114.1503,140.2601,0.1864601,0.9798071,3.984012
114.2024,136.5728,0.1184534,0.9798071,3.990471
114.2509,124.8751,0.05760496,0.9798071,3.984012
114.3021,123.4765,0.01465326,0.9798071,3.990471
114.3513,122.5864,-0.03903704,0.9798071,3.990471
114.4012,113.0503,-0.09630642,0.9798071,3.990471
114.4524,109.8716,-0.1320986,0.9798071,3.99693
114.501,104.9128,-0.1714713,0.9798071,4.003389
114.5513,102.1155,-0.1750503,0.9798071,4.003389
114.6012,99.95398,-0.2108439,0.9796425,4.003389
114.651,98.30104,-0.28601,0.9796425,4.003389
114.7022,96.26666,-0.2931682,0.9798071,4.009848
114.7513,93.46941,-0.2716923,0.9798071,4.009848
114.8022,88.7649,-0.3468572,0.9799718,4.016308
114.851,87.36626,-0.4721332,0.9798071,4.016308
114.9007,129.5796,-0.5329817,0.9798071,4.016308
114.9523,158.5695,-0.5329817,0.9798071,4.016308
115.0005,146.3632,-0.5294026,0.9798071,4.016308
115.0518,143.0574,-0.5150849,0.9798071,4.022767
115.1005,140.2601,-0.4327606,0.9798071,4.022767
115.1514,127.4181,-0.2681133,0.9798071,4.022767
115.2017,124.8751,-0.08198874,0.9798071,4.022767
115.2502,123.7308,0.1327698,0.9798071,4.029226
115.3015,115.5933,0.3367911,0.9798071,4.029226
115.3507,111.1431,0.4298527,0.9798071,4.029226
115.4006,107.5829,0.5730255,0.9798071,4.029226
115.4515,101.7341,0.6660884,0.9798071,4.035685
115.5005,100.3354,0.7269355,0.9798071,4.035685
115.5515,98.04675,0.7734677,0.9798071,4.035685
115.601,95.24948,0.7985226,0.9798071,4.035685
115.6508,95.75809,0.8522115,0.9798071,4.035685
115.7015,91.30788,0.8665292,0.9798071,4.035685
115.7513,86.73053,0.8593711,0.9798071,4.035685
115.8012,86.47623,0.8951632,0.9798071,4.042144
115.8507,129.7068,0.9345359,0.9798071,4.042144
115.9008,148.7791,1.013281,0.9798071,4.035685
115.9523,139.7515,1.102764,0.9798071,4.042144
116.0008,136.1913,1.149294,0.9798071,4.042144
116.0515,123.3493,1.188668,0.9798071,4.042144
116.101,121.6964,1.224459,0.9798071,4.042144
116.1505,121.4421,1.253095,0.9798071,4.042144
116.2015,120.6792,1.28173,0.9799718,4.042144
116.251,107.3286,1.310365,0.9799718,4.042144
116.3012,106.1843,1.342578,0.9798071,4.042144
116.351,104.0227,1.378372,0.9799718,4.048604
116.401,99.82683,1.396269,0.9799718,4.042144
116.4522,98.1739,1.389108,0.9798071,4.048604
116.5003,96.52097,1.374792,0.9798071,4.048604
116.5516,95.50377,1.364053,0.9798071,4.048604
116.6009,90.16354,1.27815,0.9798071,4.048604
116.651,87.49342,1.174349,0.9798071,4.048604
116.7023,105.0399,1.117081,0.9798071,4.055062
116.751,152.7207,1.084867,0.9798071,4.048604
116.8017,144.9646,1.049075,0.9799718,4.055062
116.8513,135.6828,1.024018,0.9796425,4.055062
116.9013,132.504,0.9989635,0.9798071,4.055062
116.9513,120.5521,0.9774876,0.9799718,4.055062
117.0006,118.772,0.9667503,0.9799718,4.055062
117.0513,118.772,0.9166391,0.9798071,4.055062
117.1013,119.2806,0.8736874,0.9798071,4.061522
117.1509,108.3458,0.855792,0.9798071,4.061522
117.2016,101.3526,0.8199984,0.9798071,4.061522
117.2514,99.69969,0.8056808,0.9798071,4.061522
117.3013,98.42819,0.7913631,0.9798071,4.061522
117.3509,96.01237,0.7448323,0.9798071,4.067981
117.4008,94.99519,0.7090401,0.9798071,4.061522
117.4519,92.07076,0.6839838,0.9798071,4.067981
117.5006,87.62056,0.5658673,0.9798071,4.067981
117.5517,92.45221,0.4405912,0.9798071,4.067981
117.6009,123.6036,0.3725846,0.9798071,4.067981
117.6509,154.755,0.3403701,0.9798071,4.067981
117.7021,141.1501,0.3045766,0.9798071,4.067981
117.7507,139.2429,0.2544667,0.9798071,4.067981
117.8018,136.6999,0.1900392,0.9798071,4.067981
117.8512,124.8751,0.1220325,0.9798071,4.067981
117.9009,122.0779,0.05402588,0.9798071,4.07444
117.952,120.8064,0.00391467,0.9798071,4.067981
118.0008,114.9575,-0.0497743,0.9798071,4.07444
118.052,107.9643,-0.1034646,0.9799718,4.07444
118.1009,102.8784,-0.1320986,0.9796425,4.07444
118.151,100.9712,-0.1499954,0.9798071,4.080899
118.202,97.15671,-0.1965262,0.9798071,4.080899
118.2503,95.75809,-0.2681133,0.9798071,4.07444
118.3012,94.2323,-0.3003264,0.9798071,4.07444
118.3512,91.30788,-0.2931682,0.9799718,4.07444
118.4007,87.74771,-0.4077056,0.9798071,4.07444
118.4523,85.45904,-0.5294026,0.9799718,4.087358
118.5011,104.277,-0.5687752,0.9798071,4.080899
118.5512,156.2808,-0.5079268,0.9798071,4.07444
118.6006,146.1089,-0.3468572,0.9798071,4.080899
118.6506,141.913,-0.189368,0.9798071,4.07444
118.7014,137.7171,-0.02829845,0.9798071,4.080899
118.7504,124.748,0.1435084,0.9798071,4.07444
118.8019,121.6964,0.3188943,0.9798071,4.07444
118.8505,120.9335,0.4012186,0.9798071,4.07444
118.9009,120.0435,0.5479705,0.9798071,4.07444
118.952,108.8544,0.6410321,0.9798071,4.080899
119.0005,105.6757,0.7054597,0.9799718,4.07444
119.0524,99.69969,0.7842049,0.9799718,4.07444
119.1012,98.6825,0.8199984,0.9798071,4.07444
119.1514,97.15671,0.8701083,0.9798071,4.07444
119.2022,94.48659,0.9166391,0.9799718,4.080899
119.2506,93.34225,1.002542,0.9798071,4.07444
119.3022,89.2735,1.041915,0.9798071,4.080899
119.3503,84.82329,1.013281,0.9798071,4.07444
119.4005,91.94361,1.041915,0.9798071,4.07444
119.452,140.5144,1.092026,0.9798071,4.07444
119.501,144.5831,1.120662,0.9798071,4.07444
119.5513,137.0814,1.163613,0.9798071,4.07444
119.6009,133.7755,1.213723,0.9799718,4.07444
119.6509,130.9782,1.23162,0.9798071,4.07444
119.702,119.2806,1.249517,0.9798071,4.07444
119.7507,118.8991,1.28173,0.9799718,4.07444
119.8021,119.2806,1.317523,0.9798071,4.07444
119.8502,109.1087,1.324682,0.9799718,4.07444
119.9002,106.3114,1.306785,0.9799718,4.07444
119.9515,100.3354,1.296046,0.9798071,4.067981
120.0009,98.6825,1.28173,0.9798071,4.07444
120.0522,96.52097,1.242356,0.9798071,4.067981
120.1004,94.61374,1.217301,0.9796425,4.067981
120.1515,93.08795,1.206565,0.9799718,4.067981
120.2013,88.7649,1.109923,0.9798071,4.067981
120.2504,85.20473,1.013281,0.9798071,4.061522
120.3015,93.72369,0.8808469,0.9798071,4.061522
120.3514,150.432,0.8092598,0.9798071,4.061522
120.4007,138.8615,0.7734677,0.9798071,4.061522
120.4524,133.5212,0.7376741,0.9799718,4.061522
120.5014,131.614,0.6804047,0.9798071,4.061522
120.5512,119.5349,0.6589289,0.9798071,4.055062
120.6011,116.9919,0.6123981,0.9799718,4.055062
120.6509,116.6105,0.5658673,0.9798071,4.055062
120.702,117.3734,0.5408123,0.9798071,4.055062
120.7507,108.9815,0.5085979,0.9799718,4.048604
120.8018,100.7169,0.4799639,0.9799718,4.048604
120.8512,99.06393,0.4799639,0.9798071,4.048604
120.9012,95.88522,0.458488,0.9798071,4.048604
120.9519,92.96081,0.3976395,0.9798071,4.048604
121.0006,92.7065,0.3654251,0.9798071,4.042144
121.0524,90.03638,0.3546878,0.9798071,4.042144
121.1009,85.33189,0.2795217,0.9799718,4.048604
121.1506,84.69615,0.1614051,0.9799718,4.042144
121.2021,134.4113,0.04328729,0.9799718,4.042144
121.2504,158.188,0.00391467,0.9798071,4.035685
121.3013,142.5488,-0.0569338,0.9798071,4.035685
121.3513,139.4972,-0.08556783,0.9798071,4.035685
121.4013,137.0814,-0.1464163,0.9799718,4.035685
121.4517,122.4593,-0.2001053,0.9799718,4.035685
121.5004,121.6964,-0.2323197,0.9798071,4.022767
121.5525,120.1706,-0.2788505,0.9798071,4.029226
121.6011,113.686,-0.3039055,0.9798071,4.029226
121.6503,108.4729,-0.3039055,0.9798071,4.022767
121.7023,101.6069,-0.2967473,0.9798071,4.022767
121.7512,99.44539,-0.2573747,0.9799718,4.029226
121.8025,96.13953,-0.2108439,0.9799718,4.022767
121.8504,94.2323,-0.1464163,0.9799718,4.022767
121.9013,92.07076,0.007493759,0.9798071,4.016308
121.9513,90.79928,0.2222536,0.9799718,4.022767
122.0009,86.09478,0.2866812,0.9798071,4.016308
122.0517,82.91606,0.308157,0.9799718,4.022767
122.1006,122.3321,0.3582669,0.9798071,4.016308
122.1513,156.7894,0.4656462,0.9798071,4.016308
122.2022,141.913,0.5766045,0.9801366,4.016308
122.2505,139.3701,0.6517707,0.9799718,4.016308
122.3022,135.937,0.7054597,0.9799718,4.016308
122.3507,122.8407,0.762729,0.9798071,4.016308
122.4006,119.4077,0.8056808,0.9799718,4.016308
122.4519,118.3905,0.8987437,0.9798071,4.016308
122.5012,114.1946,0.9774876,0.9799718,4.009848
122.5518,106.9472,1.084867,0.9798071,4.009848
122.6013,102.7513,1.145717,0.9798071,4.009848
122.6509,101.4798,1.199404,0.9798071,4.009848
122.7014,97.15671,1.23162,0.9798071,4.009848
122.7512,95.50377,1.253095,0.9798071,4.003389
122.8015,93.34225,1.285308,0.9798071,4.009848
122.8509,91.56216,1.306785,0.9799718,4.009848
122.9007,85.20473,1.28173,0.9798071,4.009848
122.9518,94.74089,1.263833,0.9798071,4.009848
123.0005,137.7171,1.274572,0.9798071,4.003389
123.0524,153.1021,1.285308,0.9798071,4.003389
123.1005,136.8271,1.303205,0.9798071,4.003389
123.1511,131.3597,1.317523,0.9798071,4.003389
123.2022,126.528,1.313943,0.9799718,4.003389
123.2503,116.3562,1.306785,0.9798071,4.003389
123.3025,116.6105,1.274572,0.9798071,4.003389
123.3509,118.1362,1.263833,0.9798071,4.003389
123.4005,108.3458,1.249517,0.9798071,4.003389
123.4516,103.1327,1.245936,0.9799718,4.003389
123.5013,98.42819,1.235198,0.9798071,4.009848
123.5522,96.52097,1.210143,0.9798071,4.003389
123.6011,94.74089,1.160033,0.9798071,4.003389
123.6511,93.08795,1.138556,0.9798071,4.009848
123.7018,91.94361,1.106343,0.9799718,4.003389
123.7514,86.22193,0.9739085,0.9798071,4.009848
123.8015,88.7649,0.8271566,0.9798071,4.009848
123.8512,137.4628,0.7770467,0.9798071,4.009848
123.9004,152.3392,0.7555709,0.9798071,4.009848
123.9514,135.8099,0.7197773,0.9798071,4.009848
124.0015,131.614,0.6875643,0.9799718,4.009848
124.0519,126.9095,0.6660884,0.9798071,4.009848
124.1015,117.7548,0.6267158,0.9798071,4.009848
124.1511,117.5005,0.6052399,0.9798071,4.009848
124.2019,117.119,0.583764,0.9799718,4.016308
124.2507,109.2358,0.5622882,0.9799718,4.009848
124.3014,101.6069,0.5515496,0.9798071,4.016308
124.3513,99.69969,0.5300738,0.9799718,4.016308
124.4011,95.88522,0.4656462,0.9798071,4.016308
124.4522,92.96081,0.3976395,0.9798071,4.016308
124.5004,92.07076,0.3403701,0.9798071,4.016308
124.5524,91.81647,0.2974184,0.9798071,4.016308
124.6006,86.09478,0.1900392,0.9798071,4.016308
124.6508,84.18755,0.01823235,0.9798071,4.022767
124.7013,128.0538,-0.08914693,0.9798071,4.016308
124.7507,157.1709,-0.1142019,0.9798071,4.016308
124.8019,141.7859,-0.1428372,0.9799718,4.022767
124.8505,139.1158,-0.1857889,0.9798071,4.022767
124.9012,135.8099,-0.243057,0.9798071,4.022767
124.9523,121.315,-0.2788505,0.9798071,4.022767
125.0007,120.9335,-0.3003264,0.9799718,4.022767
125.0525,119.7892,-0.3039055,0.9798071,4.029226
125.1012,111.906,-0.3039055,0.9798071,4.029226
125.1507,104.9128,-0.3003264,0.9799718,4.029226
125.2019,101.8612,-0.2645342,0.9799718,4.035685
125.2514,97.66531,-0.2180021,0.9798071,4.035685
125.3021,95.75809,-0.160734,0.9798071,4.035685
125.3515,94.48659,-0.02829845,0.9799718,4.042144
125.4013,92.57936,0.1864601,0.9799718,4.042144
125.4525,88.12916,0.2795217,0.9798071,4.048604
125.5014,84.569,0.3117361,0.9798071,4.042144
125.5516,89.14634,0.3546878,0.9798071,4.048604
125.6015,140.5144,0.4620671,0.9798071,4.055062
125.6513,157.6795,0.5801836,0.9799718,4.055062
125.7019,141.4044,0.6589289,0.9798071,4.055062
125.7515,138.0986,0.7126192,0.9798071,4.055062
