t_sec,O11_muM,O12_muM,O21_muM,O23_muM,O32_muM,O33_muM,O34_muM,O42_muM,O44_muM,O45_muM,O53_muM,O54_muM,O56_muM,O64_muM,O65_muM,O66_muM,O75_muM,O77_muM,O86_muM,O87_muM,D11_muM,D12_muM,D21_muM,D23_muM,D32_muM,D33_muM,D34_muM,D42_muM,D44_muM,D45_muM,D53_muM,D54_muM,D56_muM,D64_muM,D65_muM,D66_muM,D75_muM,D77_muM,D86_muM,D87_muM
0.02613209,-1.087947,0.1936097,-1.389411,-1.921912,-0.01340587,-1.306012,-0.9755549,0.222475,-0.2414709,-0.992294,-0.5002992,-1.535148,-1.404536,-1.818108,-1.387637,-1.86488,-1.498238,-1.456239,-2.193865,-0.9887674,0.9899685,0.6979949,1.4986,0.4645749,0.8221415,1.034152,0.8557931,0.5545626,0.6527691,0.2762526,1.05622,0.9582198,0.6317957,0.5638609,0.513604,1.098249,0.3672656,0.526834,0.9102122,1.221703
0.1541313,-1.199098,0.1159223,-1.434456,-2.022235,-0.09505446,-1.429678,-1.042789,0.1446585,-0.3119426,-1.052409,-0.6593629,-1.638417,-1.542587,-1.95353,-1.627284,-2.081397,-1.583077,-1.582529,-2.35389,-1.075106,0.9884409,0.6932773,1.493527,0.462422,0.8235214,1.040486,0.8608181,0.5560329,0.6552036,0.2811909,1.053759,0.9604545,0.6291497,0.5575167,0.5502839,1.092503,0.3621343,0.5302387,0.90797,1.229443
0.2821305,-1.278926,0.03196789,-1.492807,-2.128028,-0.1728464,-1.544369,-1.102895,0.07419548,-0.3651778,-1.107553,-0.8105406,-1.748054,-1.650483,-2.081829,-1.681531,-2.30142,-1.671391,-1.7225,-2.510682,-1.157316,0.9951118,0.6913914,1.494693,0.4610919,0.8166482,1.038934,0.8634905,0.5530049,0.6541346,0.2800421,1.049835,0.9601697,0.5963221,0.5535378,0.4675311,1.094284,0.3561574,0.5174881,0.907376,1.232436
0.4101296,-1.348945,-0.05179302,-1.556647,-2.240103,-0.2812673,-1.667804,-1.18649,-0.009018461,-0.4401335,-1.18003,-0.9617006,-1.847242,-1.750016,-2.208776,-1.818853,-2.492638,-1.713197,-1.681529,-2.381576,-1.127314,0.9948826,0.6869642,1.493329,0.4585706,0.8184692,1.038209,0.8706046,0.5484449,0.6536829,0.281509,1.049094,0.9666753,0.5911821,0.5422264,0.4877872,1.091272,0.3579983,0.5040656,0.9128762,1.216434
0.5381288,-1.255904,0.03571975,-1.450926,-2.075446,-0.09477074,-1.422328,-0.9935949,0.1568953,-0.2497842,-1.093439,-0.4466906,-1.527833,-1.306687,-1.647986,-1.330659,-1.558939,-1.39857,-1.242009,-1.876751,-0.8586697,0.9837154,0.6920738,1.497838,0.4617635,0.8245303,1.043772,0.8668301,0.5643204,0.6545365,0.2762581,1.063856,0.9740691,0.6386601,0.5786008,0.5431997,1.105382,0.3755469,0.5643445,0.9137587,1.213878
0.666128,-1.053285,0.2172209,-1.348473,-1.814297,0.06108123,-1.164274,-0.8426885,0.2839605,-0.1181435,-1.000675,-0.2275259,-1.342846,-1.082995,-1.51288,-1.125433,-1.379702,-1.320213,-1.151622,-1.825389,-0.8329756,1.013319,0.6969068,1.492122,0.4705985,0.8220894,1.043229,0.8484706,0.5693017,0.6604363,0.2867604,1.064935,0.9656375,0.6184369,0.5913761,0.5239795,1.10215,0.3793781,0.5396243,0.9083908,1.218122
0.7941272,-0.9870188,0.2634837,-1.319895,-1.786319,0.07268228,-1.161622,-0.8509797,0.3007624,-0.1220742,-0.9749211,-0.2566444,-1.361426,-1.150187,-1.543754,-1.144248,-1.449402,-1.336211,-1.200896,-1.863914,-0.8502436,0.9792192,0.6968771,1.489434,0.470882,0.8249397,1.039085,0.8390014,0.5668608,0.6567938,0.2819915,1.060704,0.9575101,0.6234537,0.5817009,0.5322172,1.099117,0.381981,0.5454805,0.908485,1.215172
0.9221264,-0.9934914,0.2625762,-1.352169,-1.808172,0.06190491,-1.203599,-0.8840731,0.2946502,-0.1440547,-0.975846,-0.3437454,-1.415845,-1.248035,-1.626081,-1.27716,-1.612406,-1.38279,-1.317257,-2.005892,-0.9156872,0.9771022,0.6962027,1.501107,0.4724743,0.8220429,1.040156,0.8389657,0.5582532,0.6570078,0.2834062,1.058027,0.9614505,0.6331183,0.5876841,0.5156743,1.100098,0.3739097,0.5429454,0.9095324,1.221216
1.050125,-1.023684,0.193992,-1.38755,-1.894827,-0.005652009,-1.308726,-0.9565492,0.2268585,-0.1921505,-0.9891672,-0.4899562,-1.49691,-1.353616,-1.74864,-1.417802,-1.815584,-1.467851,-1.471304,-2.146789,-0.9866403,0.9779202,0.6920177,1.489628,0.4746248,0.8155971,1.03996,0.8367598,0.5626597,0.6575154,0.2665274,1.05286,0.9586036,0.6106359,0.5798826,0.5315209,1.090493,0.3736764,0.5310466,0.9038833,1.217838
1.178125,-1.152125,0.116041,-1.426991,-1.993614,-0.08304998,-1.432157,-1.021898,0.1684497,-0.2643273,-1.056155,-0.6390009,-1.5997,-1.510356,-1.886906,-1.541085,-2.032406,-1.545434,-1.557908,-2.308519,-1.058911,0.9834813,0.691568,1.488446,0.4683894,0.8154445,1.0423,0.8407862,0.5557438,0.6614348,0.283729,1.048804,0.960617,0.6308284,0.5748313,0.5134283,1.08742,0.3623538,0.5238906,0.9035919,1.223849
1.306124,-1.235403,0.04498486,-1.499612,-2.108242,-0.1674215,-1.540686,-1.084208,0.08596931,-0.3389155,-1.111599,-0.7864815,-1.692811,-1.58463,-2.025205,-1.700399,-2.246114,-1.648617,-1.696175,-2.480028,-1.139208,0.9836518,0.685791,1.492562,0.4706375,0.8171494,1.038125,0.8410611,0.5590438,0.667109,0.2832333,1.046029,0.9577138,0.5970405,0.5716562,0.5324941,1.087554,0.3612115,0.5218285,0.9082556,1.227002
1.434123,-1.301801,-0.04078042,-1.564042,-2.212477,-0.2723815,-1.669016,-1.163515,0.006679802,-0.409356,-1.169931,-0.9524953,-1.827801,-1.780212,-2.158665,-1.818169,-2.488014,-1.729605,-1.792006,-2.511339,-1.18379,0.9740415,0.6846287,1.491837,0.4650028,0.8171329,1.040304,0.8477036,0.5511841,0.6640931,0.2791851,1.048205,0.9651081,0.6134598,0.5588362,0.4901912,1.083344,0.3545786,0.5268698,0.910851,1.212437
1.562122,-1.276137,-0.03732579,-1.519216,-2.125549,-0.1451132,-1.50398,-1.052504,0.1298893,-0.2536959,-1.138322,-0.5109231,-1.540029,-1.317793,-1.639244,-1.320691,-1.613126,-1.421216,-1.312237,-1.895831,-0.8854293,0.9700457,0.6837783,1.49455,0.4670717,0.8249827,1.040778,0.8503211,0.5634922,0.6623052,0.289736,1.062366,0.9704809,0.6346186,0.5976237,0.5083265,1.098867,0.3773088,0.5783508,0.9136426,1.208153
1.690121,-1.048842,0.1906647,-1.395859,-1.828976,0.03660453,-1.19613,-0.8644286,0.2747448,-0.1010632,-1.025704,-0.2217371,-1.332683,-1.038776,-1.466886,-1.156393,-1.349596,-1.310479,-1.074498,-1.786887,-0.8090379,1.02114,0.6914027,1.491612,0.4791912,0.8211436,1.042392,0.8348911,0.569613,0.6674904,0.2856959,1.062663,0.9688636,0.6194796,0.6016521,0.5193719,1.097502,0.3869515,0.5518682,0.9110525,1.210514
1.818121,-0.9262896,0.2714194,-1.370663,-1.773629,0.07830857,-1.164409,-0.868229,0.2908693,-0.1199309,-0.9721187,-0.2379635,-1.353714,-1.131564,-1.521126,-1.219961,-1.430839,-1.314403,-1.195862,-1.842727,-0.8301291,0.9946961,0.6947389,1.499744,0.4766819,0.8241009,1.036645,0.8296492,0.5696847,0.66597,0.2860432,1.055288,0.96152,0.6360971,0.5970441,0.5433812,1.089644,0.3726412,0.5442708,0.9090997,1.205013
1.94612,-0.977636,0.2737896,-1.357651,-1.789461,0.0758095,-1.201177,-0.8876193,0.2836283,-0.1245136,-0.9588242,-0.3130085,-1.397591,-1.224002,-1.597343,-1.274213,-1.559874,-1.385518,-1.315366,-1.978236,-0.8777854,1.012312,0.6976719,1.500094,0.4764501,0.8207157,1.032934,0.821813,0.5674452,0.6571773,0.2650763,1.055308,0.9586287,0.6463391,0.5945691,0.5082389,1.087466,0.3773673,0.5550889,0.9026849,1.219018
2.074119,-1.023872,0.2224827,-1.395095,-1.830679,0.001505199,-1.309364,-0.9712418,0.2333016,-0.19499,-0.9933129,-0.454902,-1.484263,-1.32961,-1.734929,-1.457062,-1.777784,-1.456624,-1.424297,-2.135787,-0.9723794,1.010998,0.6946215,1.490789,0.4780677,0.8231378,1.034716,0.8301946,0.5627947,0.6633176,0.2634606,1.051366,0.9557936,0.6290181,0.5887852,0.5576204,1.087562,0.3648441,0.5420309,0.9051128,1.222709
2.202118,-1.119404,0.1424759,-1.460183,-1.955371,-0.06766811,-1.426424,-1.03892,0.1596116,-0.2692678,-1.053475,-0.6179387,-1.591957,-1.482082,-1.886877,-1.538206,-2.008287,-1.558548,-1.571252,-2.290603,-1.041535,1.008471,0.6938017,1.500013,0.480264,0.8220778,1.032657,0.8346655,0.5591334,0.6659373,0.2737812,1.048293,0.9561653,0.6262421,0.58358,0.4921873,1.082588,0.3663815,0.5250185,0.9034189,1.214755
2.330117,-1.219144,0.06453893,-1.519619,-2.08423,-0.1617366,-1.552223,-1.10341,0.09971215,-0.3523872,-1.107889,-0.7778066,-1.706375,-1.602517,-2.023852,-1.685352,-2.241362,-1.640053,-1.642062,-2.455009,-1.123527,1.00239,0.6905264,1.505136,0.4721191,0.8227918,1.034104,0.8359469,0.5526853,0.6704509,0.2784882,1.045692,0.9586993,0.6152538,0.5698798,0.4852047,1.076924,0.353219,0.5089957,0.9060125,1.219832
2.458117,-1.304668,-0.01922435,-1.586054,-2.20455,-0.2491642,-1.662961,-1.180565,0.0132766,-0.4111302,-1.144719,-0.9470931,-1.827639,-1.784217,-2.170101,-1.838516,-2.480222,-1.746703,-1.857969,-2.622695,-1.211775,1.006041,0.6868197,1.492327,0.4688321,0.8187076,1.030393,0.8441955,0.5526123,0.6662014,0.2640958,1.04885,0.9634832,0.6206247,0.5662304,0.4913708,1.076885,0.3425061,0.5365348,0.9114755,1.227707
2.586116,-1.371071,-0.115599,-1.653915,-2.253348,-0.252746,-1.664885,-1.170055,0.05929618,-0.3603793,-1.171772,-0.6606204,-1.640455,-1.457774,-1.778444,-1.468853,-1.780321,-1.481128,-1.343293,-1.984624,-0.9196236,0.9780204,0.6797101,1.491168,0.4695149,0.8259014,1.037053,0.8495376,0.5604861,0.6638551,0.281976,1.057722,0.9708031,0.6321839,0.5952048,0.522074,1.090019,0.3589247,0.5472912,0.9150531,1.207305
2.714115,-1.039185,0.1638996,-1.449409,-1.881488,0.005057283,-1.24492,-0.9045121,0.2560764,-0.1475728,-1.048211,-0.2340675,-1.346456,-1.092281,-1.487373,-1.203712,-1.33823,-1.298834,-1.094944,-1.710979,-0.7571192,0.9945349,0.6930843,1.505759,0.4789999,0.826114,1.036607,0.8342861,0.5666505,0.6612468,0.2729243,1.0628,0.9689174,0.6362469,0.6042864,0.5405079,1.092946,0.3764996,0.560372,0.9112701,1.202525
2.842114,-0.9400901,0.3041043,-1.349849,-1.741378,0.1102973,-1.137963,-0.8499179,0.3209956,-0.09737369,-0.9830778,-0.1789879,-1.307242,-1.1189,-1.501331,-1.155645,-1.374202,-1.305312,-1.129441,-1.774313,-0.7814635,1.011432,0.6972231,1.505144,0.4802338,0.8241628,1.033746,0.828185,0.5686525,0.6531905,0.2839828,1.057195,0.9583182,0.6466179,0.5985558,0.5198988,1.088478,0.3786401,0.5351793,0.9107508,1.20349
2.970113,-0.9559455,0.3058825,-1.33967,-1.756041,0.1067638,-1.152708,-0.8739766,0.3241098,-0.1303876,-0.9324511,-0.2275162,-1.346555,-1.145681,-1.551614,-1.165598,-1.464089,-1.336106,-1.254179,-1.876178,-0.8311105,1.000156,0.699752,1.500679,0.4776008,0.8231269,1.029473,0.8256391,0.5651401,0.6591744,0.2723351,1.056106,0.956669,0.6462097,0.5975522,0.4789032,1.086093,0.3665464,0.5563757,0.9039767,1.207765
3.098112,-1.005036,0.2580524,-1.37228,-1.829211,0.05149674,-1.243522,-0.9455891,0.278757,-0.1889411,-0.9769217,-0.3641206,-1.430456,-1.262248,-1.694607,-1.351657,-1.68075,-1.415186,-1.376665,-2.043891,-0.9203969,1.003728,0.6982076,1.499876,0.4762431,0.8163069,1.028771,0.8286055,0.5601798,0.6595459,0.2849447,1.052906,0.9506372,0.6233566,0.5959811,0.5216259,1.078919,0.3607057,0.5438048,0.9039722,1.205399
3.226111,-1.074723,0.1746419,-1.433353,-1.940769,-0.03736914,-1.356564,-1.017637,0.2065666,-0.2659056,-0.9987013,-0.5283773,-1.555386,-1.397008,-1.852689,-1.485036,-1.920293,-1.497048,-1.524832,-2.211142,-0.9897949,0.9981826,0.6919158,1.503292,0.4737446,0.8163937,1.024596,0.8316479,0.5608119,0.6610323,0.2698267,1.047682,0.9553785,0.5920718,0.5861109,0.5171957,1.076737,0.3554691,0.540224,0.9021873,1.206663
3.354111,-1.196602,0.09209278,-1.491047,-2.059052,-0.1176842,-1.480661,-1.088051,0.1366249,-0.3414446,-1.064757,-0.6920301,-1.670575,-1.551716,-2.00085,-1.6256,-2.154541,-1.587987,-1.626319,-2.378141,-1.068687,0.9890475,0.6882162,1.496704,0.4614238,0.8147653,1.022181,0.8418517,0.5571323,0.6692038,0.2845972,1.047801,0.9560342,0.6042721,0.5789441,0.475446,1.077031,0.3488265,0.5111065,0.903034,1.207279
3.48211,-1.265875,0.0005714755,-1.583771,-2.135227,-0.2203913,-1.602472,-1.162683,0.06133161,-0.4114046,-1.140628,-0.8553693,-1.77537,-1.68216,-2.129301,-1.85841,-2.396211,-1.681205,-1.776302,-2.534226,-1.16428,0.9868626,0.6847063,1.508469,0.47257,0.8152959,1.021457,0.8478471,0.5474244,0.6627036,0.2904268,1.044668,0.9529209,0.603838,0.5645869,0.5475844,1.068764,0.3450011,0.5059259,0.9018041,1.205346
3.610109,-1.354818,-0.09246495,-1.644475,-2.276967,-0.3284762,-1.736559,-1.244624,-0.02868277,-0.4803681,-1.187658,-0.9708115,-1.868745,-1.773711,-2.222917,-1.785413,-2.508779,-1.690296,-1.657771,-2.303124,-1.09039,1.001387,0.6767452,1.498041,0.4705046,0.8114368,1.023746,0.851739,0.5479922,0.6627643,0.2701785,1.045808,0.9585878,0.6111927,0.5668007,0.4381855,1.062541,0.3470271,0.5188968,0.9085164,1.182285
3.738108,-1.222091,0.02347932,-1.52182,-2.058315,-0.1152618,-1.425176,-1.035181,0.1625049,-0.2719977,-1.116586,-0.401264,-1.512906,-1.268864,-1.641452,-1.286181,-1.548057,-1.387293,-1.247432,-1.810481,-0.8511696,0.9896385,0.684268,1.492518,0.46973,0.8189038,1.024986,0.8496983,0.5614423,0.6733901,0.2707628,1.05929,0.9566203,0.646587,0.6058738,0.5069899,1.079138,0.3729236,0.5663227,0.9144458,1.182897
3.866107,-0.9890973,0.2015083,-1.435821,-1.801922,0.03902704,-1.174405,-0.8794238,0.2852469,-0.1418769,-1.02158,-0.1805111,-1.353256,-1.102119,-1.530499,-1.18947,-1.395547,-1.313269,-1.194157,-1.762615,-0.8211908,0.9870306,0.6851314,1.505734,0.4808652,0.8201251,1.027864,0.8310117,0.5649147,0.6659197,0.2816592,1.057768,0.9522976,0.6389683,0.605305,0.527651,1.074185,0.3730368,0.5538163,0.911164,1.18385
3.994107,-0.9849529,0.2490832,-1.406037,-1.7776,0.06147811,-1.170975,-0.9064364,0.2952166,-0.1637731,-0.9903821,-0.2055272,-1.388754,-1.147735,-1.577084,-1.224978,-1.456365,-1.317252,-1.21004,-1.798606,-0.8258131,0.9975205,0.6901513,1.496969,0.4790858,0.8211725,1.021735,0.8292988,0.5643737,0.6637057,0.2755166,1.056176,0.9496758,0.64229,0.6016296,0.5463505,1.07157,0.3698345,0.5447738,0.8994393,1.185891
4.122106,-0.9962084,0.2483021,-1.435104,-1.751014,0.03525677,-1.205578,-0.9498997,0.276898,-0.1834558,-0.968108,-0.2841583,-1.443645,-1.213773,-1.650527,-1.318388,-1.620919,-1.375633,-1.381461,-1.93078,-0.9180968,1.006263,0.6891737,1.495563,0.4789079,0.8198729,1.017143,0.8309103,0.555342,0.6634272,0.2616899,1.05111,0.9501259,0.6175526,0.6053544,0.5224072,1.067506,0.3699838,0.5494108,0.9035278,1.180169
4.250105,-1.025618,0.1453577,-1.550267,-1.833173,-0.05219796,-1.308747,-1.030077,0.2137921,-0.2573249,-1.032287,-0.4372986,-1.516916,-1.331943,-1.753771,-1.458223,-1.855323,-1.440896,-1.474513,-2.067731,-1.01384,0.9993622,0.6758513,1.484088,0.4786449,0.8087192,1.019787,0.8303176,0.5544145,0.6730354,0.269742,1.049505,0.9477466,0.6090194,0.6036695,0.5368334,1.052955,0.3572398,0.5437699,0.8981814,1.170938
4.378104,-1.092786,0.07115745,-1.649718,-1.911394,-0.1325558,-1.410294,-1.117079,0.1465727,-0.3062721,-1.078465,-0.5831463,-1.590935,-1.498846,-1.858316,-1.556081,-2.052618,-1.535102,-1.560963,-2.187712,-1.098501,1.010883,0.6706862,1.473385,0.485291,0.8091758,1.018504,0.8312501,0.5586078,0.676966,0.2704396,1.045483,0.9516569,0.5986834,0.6016645,0.4457702,1.054031,0.3571243,0.5156518,0.9030666,1.172111
4.506104,-1.192169,0.02210156,-1.638437,-2.033294,-0.195472,-1.547144,-1.18366,0.06375148,-0.4269676,-1.13029,-0.7722711,-1.722691,-1.679954,-2.057321,-1.675338,-2.325831,-1.630616,-1.691835,-2.356075,-1.175867,0.9913534,0.6771014,1.475016,0.4798247,0.8196499,1.014659,0.8387514,0.5426119,0.667343,0.2806925,1.038476,0.9487387,0.6198405,0.5824171,0.4456493,1.053048,0.3437059,0.5341738,0.9078907,1.172956
4.634102,-1.29519,-0.04998021,-1.725795,-2.144441,-0.2819661,-1.672438,-1.25993,-0.02342387,-0.5144301,-1.200215,-0.9469,-1.83737,-1.833665,-2.190498,-1.89495,-2.549292,-1.72475,-1.857688,-2.514621,-1.26224,0.9765872,0.6782438,1.487376,0.4743891,0.8198103,1.012797,0.8469507,0.5465837,0.658031,0.2676884,1.03947,0.9526176,0.6197194,0.5742496,0.468895,1.045714,0.335974,0.5371496,0.9074546,1.172443
4.762102,-1.35932,-0.1685107,-1.858861,-2.21539,-0.3568604,-1.705287,-1.298414,-0.01228702,-0.4824035,-1.221427,-0.7487729,-1.706206,-1.593059,-1.869766,-1.631308,-1.979113,-1.509785,-1.408355,-1.958527,-1.009225,0.9907253,0.6620183,1.479674,0.4745649,0.815088,1.017061,0.8470001,0.5498386,0.6650742,0.2741282,1.050594,0.9595715,0.6275859,0.6077948,0.490049,1.057339,0.3576214,0.5404851,0.9123955,1.151098
4.890101,-1.048365,0.06416489,-1.608696,-1.848993,-0.1006039,-1.289263,-1.041052,0.1892708,-0.2692754,-1.102554,-0.2955936,-1.427137,-1.217525,-1.536375,-1.276036,-1.458697,-1.31691,-1.157024,-1.710932,-0.8301375,0.9895974,0.6696606,1.455231,0.4900863,0.8212303,1.019036,0.8306224,0.561475,0.6666312,0.2762673,1.049631,0.9636157,0.6227226,0.6210327,0.5072243,1.067412,0.3687174,0.5513971,0.9066364,1.154745
5.0181,-0.9590665,0.1960181,-1.54035,-1.67468,-0.01290846,-1.174975,-0.9971668,0.2430071,-0.2449048,-1.003711,-0.2500758,-1.392231,-1.159423,-1.564428,-1.170166,-1.464511,-1.324917,-1.204023,-1.755896,-0.8553484,1.00769,0.6760091,1.475599,0.5004566,0.8199062,1.01737,0.8243361,0.5631262,0.6593987,0.2682884,1.051255,0.9539055,0.6066587,0.6124603,0.5001678,1.06297,0.3675638,0.5456407,0.8997532,1.156669
5.146099,-0.9889153,0.2186931,-1.524494,-1.712971,0.001572496,-1.196694,-1.018085,0.2391561,-0.2741424,-0.9873598,-0.2854203,-1.414292,-1.227623,-1.616947,-1.2965,-1.538943,-1.347638,-1.269538,-1.850633,-0.8920952,0.9731372,0.6836935,1.474755,0.4979683,0.8234563,1.014772,0.8260317,0.5633284,0.6619743,0.2795565,1.04425,0.9509327,0.6150362,0.6064404,0.5312972,1.055056,0.3568241,0.5256479,0.8964303,1.155241
5.274098,-1.015881,0.1821973,-1.552547,-1.795394,-0.04859117,-1.277226,-1.081494,0.1892436,-0.314402,-1.008059,-0.4143239,-1.500038,-1.362203,-1.733626,-1.444831,-1.764268,-1.438529,-1.397869,-2.006774,-0.9839975,0.974147,0.6815974,1.482393,0.4950536,0.8217286,1.014792,0.8299282,0.5598029,0.6593081,0.2707917,1.041811,0.9488414,0.6171523,0.6008652,0.5159381,1.055073,0.360515,0.5278274,0.9016151,1.160464
5.402098,-1.099243,0.09767152,-1.609711,-1.903309,-0.126598,-1.387939,-1.151553,0.1327063,-0.3868176,-1.048739,-0.5652288,-1.584253,-1.495757,-1.884016,-1.55263,-1.992003,-1.517045,-1.517219,-2.150279,-1.062726,0.9992284,0.6772427,1.482339,0.4933298,0.819895,1.012133,0.8319008,0.5536985,0.6674872,0.2704449,1.036565,0.9436744,0.6029108,0.5972249,0.4961827,1.048882,0.3475681,0.5295085,0.8994769,1.158648
5.530097,-1.182252,0.0213626,-1.679822,-2.016516,-0.2231069,-1.51225,-1.228513,0.05757447,-0.4380697,-1.11419,-0.7129024,-1.689973,-1.616974,-2.012097,-1.718843,-2.236466,-1.614738,-1.6577,-2.299083,-1.158213,0.9793402,0.6738383,1.494603,0.4911475,0.8214661,1.016709,0.8397775,0.5506406,0.6621995,0.2777868,1.035933,0.9425491,0.5890251,0.5850745,0.4865203,1.054789,0.3439842,0.5267846,0.900938,1.163049
5.658096,-1.273647,-0.05794524,-1.736766,-2.139543,-0.3009801,-1.624976,-1.303087,-0.02333415,-0.5268185,-1.159267,-0.8705027,-1.813834,-1.760729,-2.158571,-1.913299,-2.479988,-1.71296,-1.773903,-2.42226,-1.263317,0.9735638,0.6715508,1.481862,0.4881694,0.8224217,1.012068,0.8454129,0.5445657,0.6644244,0.2600827,1.035212,0.9413428,0.6084248,0.5795388,0.5321366,1.036157,0.3414059,0.4975164,0.9003227,1.15685
5.786095,-1.303192,-0.1481758,-1.808227,-2.253031,-0.4096522,-1.754035,-1.384444,-0.1153765,-0.6085303,-1.257389,-1.01033,-1.925222,-1.896263,-2.274235,-1.985711,-2.670297,-1.74739,-1.792925,-2.282407,-1.241267,0.9428515,0.6655623,1.477898,0.4834654,0.8205566,1.011395,0.848867,0.5448095,0.670888,0.2780933,1.037777,0.9475027,0.6005704,0.5744913,0.5004593,1.032276,0.3340161,0.5331602,0.908148,1.136302
5.914094,-1.284239,-0.06253967,-1.700723,-2.0774,-0.2242543,-1.492276,-1.205713,0.06092878,-0.4243495,-1.147398,-0.4443368,-1.585799,-1.343079,-1.697156,-1.441028,-1.662219,-1.40659,-1.28282,-1.739754,-0.9272756,0.9705238,0.6724313,1.486495,0.4844745,0.8354661,1.020235,0.8447075,0.5589093,0.671894,0.2663818,1.052309,0.9478396,0.6194556,0.6123344,0.5176742,1.054113,0.3594431,0.5528483,0.9125734,1.135494
6.042093,-1.04042,0.1359152,-1.594695,-1.779414,-0.0572647,-1.186649,-1.045236,0.1969328,-0.2719498,-1.052716,-0.1670944,-1.400062,-1.121945,-1.52243,-1.251683,-1.420079,-1.30436,-1.19469,-1.655811,-0.8761107,0.9904613,0.6721271,1.477077,0.4942003,0.8280328,1.01836,0.8284105,0.5699067,0.6687765,0.2805645,1.055231,0.9438683,0.6303554,0.6110817,0.552835,1.051583,0.3636828,0.5561722,0.9071532,1.14217
6.170093,-0.961258,0.205446,-1.552009,-1.721021,-0.02795836,-1.164107,-1.057664,0.2202941,-0.2873884,-1.013124,-0.1874577,-1.413545,-1.147173,-1.586973,-1.250685,-1.512467,-1.324622,-1.220598,-1.712467,-0.8818522,0.9858035,0.676581,1.476627,0.4880239,0.833358,1.013485,0.8228362,0.5656167,0.6670014,0.2911521,1.050321,0.9338442,0.6094948,0.6061475,0.5115766,1.049753,0.3621674,0.5355774,0.9015502,1.141513
6.298092,-1.046832,0.2067589,-1.568745,-1.735139,-0.02719481,-1.201142,-1.086514,0.2173423,-0.3203509,-0.9973368,-0.2701834,-1.461664,-1.245907,-1.677248,-1.324651,-1.63957,-1.378334,-1.326172,-1.877265,-0.9249037,0.9918369,0.6815827,1.478272,0.4811858,0.8275455,1.011069,0.8249795,0.5615389,0.6623341,0.2897148,1.046369,0.929668,0.6107709,0.6016896,0.515852,1.052696,0.3555731,0.528915,0.9027551,1.154544
6.426091,-1.073923,0.1508045,-1.595792,-1.780306,-0.1053084,-1.299953,-1.155538,0.1580614,-0.3898042,-1.016672,-0.4319086,-1.570166,-1.378918,-1.824068,-1.464528,-1.878966,-1.459503,-1.487897,-2.037647,-1.000545,0.9687321,0.6790521,1.482221,0.491033,0.8331664,1.005205,0.8321652,0.5597146,0.6708948,0.2751743,1.043339,0.9287329,0.6156588,0.593215,0.515676,1.050218,0.3506446,0.5489854,0.8953264,1.15373
6.55409,-1.216097,0.06596651,-1.630331,-1.915934,-0.1831318,-1.418277,-1.224617,0.09480388,-0.4553793,-1.078891,-0.5866936,-1.666686,-1.508361,-1.963418,-1.564322,-2.092099,-1.539689,-1.59071,-2.195238,-1.080091,0.9703575,0.677017,1.474353,0.4866645,0.8294184,1.008091,0.8422915,0.5553312,0.6697355,0.2794826,1.039374,0.9323279,0.5892412,0.5897703,0.49442,1.047222,0.3485726,0.5289512,0.8985785,1.160494
6.682089,-1.216473,-0.03175116,-1.727903,-2.035088,-0.2875862,-1.539894,-1.300745,0.01642259,-0.5274861,-1.132029,-0.7480834,-1.778498,-1.641984,-2.092541,-1.714992,-2.322785,-1.633262,-1.748385,-2.363544,-1.142038,0.9392629,0.6668534,1.496802,0.4820722,0.8266521,1.013456,0.8486252,0.5546216,0.6814063,0.2874532,1.036812,0.9315506,0.593057,0.5817055,0.5063828,1.050977,0.3503898,0.5233681,0.8941446,1.172754
6.810089,-1.361991,-0.1265611,-1.786655,-2.092625,-0.3860479,-1.651196,-1.36588,-0.06724765,-0.5925386,-1.198581,-0.9121568,-1.874683,-1.798957,-2.213921,-1.882182,-2.546777,-1.723121,-1.836229,-2.548307,-1.228345,0.9597307,0.6572932,1.481889,0.4994783,0.8213817,1.015808,0.8520692,0.5527106,0.6832666,0.2840284,1.036286,0.9356132,0.5933033,0.5726067,0.4992379,1.050669,0.3379213,0.4971404,0.8960282,1.174057
6.938087,-1.382299,-0.2305519,-1.882486,-2.22035,-0.4858182,-1.751476,-1.434935,-0.1146861,-0.6270852,-1.247713,-0.8433521,-1.844572,-1.704751,-2.065051,-1.697255,-2.218278,-1.573412,-1.517161,-2.096042,-1.031464,0.9568018,0.6499423,1.471041,0.4867419,0.8233094,1.013986,0.8555831,0.5482323,0.6844314,0.2797825,1.04488,0.9397717,0.604748,0.5920049,0.4726361,1.057342,0.3534138,0.5156686,0.9026256,1.159443
7.066087,-1.194583,-0.0185798,-1.697395,-1.895295,-0.215207,-1.357324,-1.183342,0.09618701,-0.4238708,-1.126457,-0.3285212,-1.537161,-1.240487,-1.641405,-1.266944,-1.541038,-1.378241,-1.263083,-1.770058,-0.8641286,0.9827359,0.6599813,1.478513,0.4963084,0.8308356,1.020905,0.8451911,0.5669107,0.6920109,0.2702742,1.051405,0.9374557,0.6063795,0.6105567,0.5169245,1.075068,0.3686475,0.5554903,0.9020317,1.157365
7.194086,-0.9973445,0.1331768,-1.591686,-1.717764,-0.09662653,-1.189402,-1.099452,0.1688698,-0.3446975,-1.064743,-0.2174429,-1.452344,-1.197914,-1.626583,-1.25288,-1.496227,-1.343627,-1.244666,-1.775567,-0.8499821,0.9576162,0.6653164,1.465806,0.4940152,0.8357214,1.011557,0.8397993,0.5674242,0.6759262,0.2891137,1.044523,0.9307163,0.6059617,0.6090612,0.5425446,1.070284,0.3675173,0.5400942,0.8923782,1.16154
7.322085,-0.9968828,0.1575521,-1.585598,-1.669919,-0.07191777,-1.193619,-1.11063,0.1797275,-0.359377,-1.04823,-0.2348964,-1.456756,-1.172751,-1.647872,-1.304561,-1.55115,-1.357453,-1.29365,-1.857691,-0.8816478,0.9487647,0.6708804,1.471225,0.5099998,0.8327922,1.0115,0.8346583,0.5718458,0.6844406,0.2850501,1.045775,0.9273083,0.6088114,0.606066,0.5466155,1.071212,0.3642038,0.5363305,0.8987741,1.167878
7.450084,-1.08166,0.1402826,-1.610823,-1.726762,-0.1019187,-1.257707,-1.151289,0.1578458,-0.3933097,-1.066861,-0.3331624,-1.536011,-1.35903,-1.738584,-1.38236,-1.709963,-1.412527,-1.430255,-2.003579,-0.9406047,0.9710718,0.6701476,1.477476,0.5047153,0.8299417,1.013057,0.8373964,0.564122,0.6852263,0.2814429,1.039633,0.9325531,0.6327004,0.6019301,0.5365354,1.068367,0.3612496,0.5517045,0.896173,1.167992
7.578084,-1.128566,0.06400659,-1.652859,-1.80031,-0.1799834,-1.363432,-1.221206,0.09805897,-0.450115,-1.114826,-0.4742819,-1.616888,-1.424673,-1.859523,-1.487408,-1.925107,-1.498057,-1.49444,-2.128767,-1.020995,0.972693,0.6624793,1.464517,0.5004663,0.8303428,1.017085,0.8459691,0.5688456,0.6896345,0.2942914,1.037159,0.9340008,0.5979167,0.6022261,0.5253327,1.072156,0.3651246,0.5068294,0.8878712,1.172569
7.706083,-1.218827,0.004265887,-1.719044,-1.919136,-0.2332852,-1.469673,-1.284279,0.03335971,-0.5024722,-1.13416,-0.6276612,-1.708122,-1.54054,-1.997314,-1.648903,-2.131166,-1.588195,-1.609326,-2.292371,-1.094276,0.9803421,0.6613979,1.476573,0.5005733,0.8292756,1.013497,0.8544025,0.5628772,0.6855252,0.2909381,1.034052,0.9307262,0.6048958,0.5979103,0.5015717,1.067268,0.3566697,0.5247847,0.8904242,1.179904
7.834082,-1.271205,-0.06398597,-1.78122,-2.025764,-0.3165671,-1.583754,-1.349315,-0.03951655,-0.5766627,-1.210866,-0.7582583,-1.78982,-1.684041,-2.109162,-1.820208,-2.309609,-1.669375,-1.707384,-2.438033,-1.163845,0.9596946,0.6642097,1.475539,0.4906701,0.8326592,1.016294,0.8574712,0.560095,0.7008777,0.2869827,1.036572,0.929889,0.6005638,0.5929266,0.4996429,1.065861,0.3475303,0.5075676,0.8856018,1.183759
7.962081,-1.34151,-0.145341,-1.859843,-2.149438,-0.4015008,-1.694382,-1.427401,-0.1063629,-0.6468282,-1.250402,-0.8062057,-1.858054,-1.690681,-2.091628,-1.817079,-2.255898,-1.606734,-1.603751,-2.116645,-1.037752,0.9650915,0.6591901,1.470607,0.4864995,0.8377696,1.015273,0.8621412,0.5518442,0.7024286,0.2732109,1.044002,0.9455781,0.6087412,0.5933647,0.5088779,1.066416,0.3526279,0.5606235,0.8918952,1.169862
8.09008,-1.169369,0.01759608,-1.706539,-1.874666,-0.1797396,-1.329302,-1.207757,0.09202109,-0.4367841,-1.160078,-0.2629286,-1.518101,-1.200686,-1.61355,-1.372994,-1.473943,-1.35023,-1.181027,-1.745406,-0.8171461,0.9576701,0.6675798,1.462604,0.4919378,0.8381643,1.022232,0.8572751,0.5735644,0.7022717,0.2831679,1.053251,0.950219,0.6214527,0.6374686,0.5262721,1.085503,0.3678727,0.5494134,0.8935053,1.16776
8.21808,-0.9276568,0.1476412,-1.625724,-1.650408,-0.06138624,-1.126088,-1.099609,0.2095979,-0.3268161,-1.049343,-0.1051951,-1.398187,-1.059029,-1.551665,-1.245052,-1.394399,-1.304778,-1.16987,-1.723091,-0.812386,0.9650722,0.6622003,1.453999,0.5032135,0.8366949,1.023192,0.8455227,0.5767071,0.7047092,0.2944382,1.051081,0.9493614,0.6080598,0.6286577,0.5762067,1.082082,0.3846539,0.5359195,0.8938527,1.175037
8.346079,-1.017087,0.1942931,-1.57715,-1.650953,-0.02257507,-1.133944,-1.122758,0.1943961,-0.3657816,-1.010427,-0.1375646,-1.445512,-1.062211,-1.592981,-1.213989,-1.440553,-1.315674,-1.268394,-1.793157,-0.8355768,0.9595768,0.6715733,1.470484,0.4981248,0.8349544,1.018245,0.8460734,0.572773,0.6941614,0.2826307,1.050385,0.9504722,0.5847924,0.6199924,0.52902,1.084367,0.3784115,0.5479516,0.8860731,1.174261
8.474078,-1.004714,0.1462896,-1.614608,-1.665318,-0.09121031,-1.182159,-1.176316,0.1854217,-0.3844524,-1.052577,-0.2226006,-1.497049,-1.196093,-1.665264,-1.349987,-1.599573,-1.380471,-1.383193,-1.923503,-0.9042145,0.9842706,0.6604972,1.451418,0.4988076,0.8291093,1.020346,0.8448791,0.5800465,0.7093207,0.2965026,1.046647,0.9453101,0.6052424,0.6303857,0.5290977,1.086822,0.3681692,0.5482793,0.8806486,1.178909
8.602077,-1.058227,0.1035843,-1.647393,-1.767729,-0.1196007,-1.2945,-1.236145,0.1185669,-0.470923,-1.064013,-0.3743147,-1.603393,-1.307893,-1.8167,-1.443702,-1.799853,-1.458735,-1.423805,-2.07661,-0.9662799,0.9690243,0.6627499,1.460759,0.4976465,0.8292353,1.022938,0.8523659,0.5673516,0.7095278,0.2816643,1.03929,0.9541301,0.5902259,0.6194016,0.5290669,1.084877,0.3636675,0.5170324,0.8755696,1.182699
8.730076,-1.169853,0.029661,-1.714365,-1.862773,-0.2261866,-1.402328,-1.303816,0.07212034,-0.5194069,-1.140281,-0.508545,-1.685878,-1.428417,-1.91822,-1.631977,-1.977083,-1.552996,-1.579389,-2.241284,-1.018523,0.987183,0.6597101,1.458092,0.49309,0.8327993,1.024712,0.8570032,0.5568498,0.721702,0.3082117,1.037877,0.9497387,0.5889378,0.6221848,0.5626817,1.093334,0.3703822,0.5339496,0.8762232,1.194402
8.858075,-1.232233,-0.06119825,-1.802446,-1.900555,-0.2948072,-1.501674,-1.362901,-0.01727427,-0.5892202,-1.179115,-0.6571549,-1.764136,-1.567066,-2.037679,-1.758916,-2.187236,-1.6392,-1.691365,-2.395286,-1.106872,0.9909458,0.6529629,1.458852,0.5125644,0.8288277,1.023888,0.859003,0.5610127,0.7175497,0.2995069,1.034894,0.9484899,0.5984173,0.6112974,0.5350242,1.085549,0.363746,0.5202276,0.8804759,1.196965
8.986074,-1.288771,-0.1346714,-1.848826,-2.028557,-0.3864005,-1.623233,-1.451995,-0.1025861,-0.6677673,-1.251907,-0.7600572,-1.857814,-1.636085,-2.097467,-1.801194,-2.242458,-1.607738,-1.566945,-2.151443,-1.011615,0.9626981,0.6516365,1.449408,0.5025911,0.8212147,1.022169,0.8686685,0.5627424,0.7222099,0.3086441,1.040181,0.9597561,0.5907587,0.6099737,0.5368173,1.085548,0.3612438,0.5226856,0.888207,1.178555
9.114074,-1.15578,0.004234903,-1.712969,-1.79348,-0.1616289,-1.289298,-1.229326,0.102444,-0.4669824,-1.119948,-0.1806279,-1.500454,-1.083346,-1.579553,-1.323343,-1.37263,-1.32205,-1.13259,-1.665639,-0.7599378,0.9730562,0.6594119,1.459384,0.5005938,0.8359787,1.027179,0.85956,0.5772433,0.7281127,0.287263,1.051881,0.9655203,0.6245362,0.6431164,0.5580755,1.102836,0.389718,0.5522049,0.8913331,1.180318
9.242073,-0.9156289,0.2077868,-1.573372,-1.548257,0.01473576,-1.041056,-1.077387,0.2542907,-0.317151,-1.017956,0.05419051,-1.322578,-0.9233807,-1.459119,-1.223367,-1.201759,-1.228423,-1.026019,-1.596949,-0.7105992,0.9753334,0.6644102,1.464074,0.5007579,0.8351182,1.022725,0.8499845,0.576722,0.7221705,0.3199306,1.049299,0.9638914,0.6195394,0.6456899,0.6063989,1.100689,0.3901149,0.5349048,0.8859826,1.180044
9.370072,-0.9176552,0.2766277,-1.504043,-1.516176,0.06332697,-1.02587,-1.086996,0.2674125,-0.3381354,-0.9911376,0.04374786,-1.360704,-0.9651963,-1.500318,-1.165259,-1.262415,-1.23443,-1.064673,-1.634572,-0.7396737,0.9742598,0.6707295,1.458456,0.4987312,0.8292299,1.020381,0.8483664,0.5793,0.7220918,0.3101331,1.05145,0.9575435,0.6404883,0.639042,0.5783354,1.094629,0.3863775,0.5313041,0.882611,1.178521
9.498072,-0.9279411,0.2672678,-1.510146,-1.54076,0.03621837,-1.063134,-1.130292,0.2516887,-0.364123,-0.9916973,-0.02986895,-1.437212,-1.060594,-1.592735,-1.190706,-1.406142,-1.287616,-1.246018,-1.773761,-0.8029847,0.9537234,0.6671124,1.450831,0.4989969,0.8310766,1.020777,0.8525421,0.5811724,0.7229044,0.3102528,1.044264,0.9580643,0.6300359,0.6430418,0.5399773,1.094928,0.3854178,0.5617751,0.8818036,1.184689
9.62607,-1.030921,0.2087945,-1.547275,-1.622185,-0.02048267,-1.152021,-1.187416,0.205442,-0.4294581,-1.038448,-0.1684013,-1.533683,-1.202783,-1.709003,-1.370696,-1.603268,-1.355885,-1.328317,-1.926736,-0.8706395,0.9801568,0.6635004,1.460925,0.4975053,0.8235307,1.018758,0.8582923,0.5709046,0.7261077,0.3157173,1.041887,0.9626334,0.6163493,0.6373189,0.5803767,1.095438,0.3807139,0.5228587,0.8761942,1.190562
9.754069,-1.087051,0.1333829,-1.613558,-1.663965,-0.08950563,-1.256117,-1.250938,0.1427409,-0.4860159,-1.071732,-0.3080502,-1.622378,-1.292766,-1.830769,-1.455358,-1.794634,-1.432913,-1.468097,-2.067817,-0.9473853,0.9591345,0.6598069,1.463792,0.5027295,0.8225971,1.018204,0.8678106,0.5712894,0.7346764,0.310873,1.03866,0.967434,0.5992079,0.6373461,0.5706724,1.098246,0.3746049,0.5377328,0.8833104,1.193186
9.882069,-1.168624,0.060228,-1.692677,-1.749237,-0.1641631,-1.367913,-1.318105,0.07142014,-0.5618358,-1.129833,-0.4572187,-1.71704,-1.376994,-1.95007,-1.608938,-1.987244,-1.517058,-1.550061,-2.201352,-1.024626,0.9720119,0.6564884,1.473653,0.5149655,0.8220226,1.021886,0.8734032,0.5669166,0.7386773,0.3170956,1.034766,0.9686608,0.5809538,0.6326094,0.5686322,1.098116,0.3750794,0.515273,0.875897,1.197536
10.01007,-1.170316,-0.01728673,-1.750247,-1.8472,-0.2516676,-1.477732,-1.391088,0.01154467,-0.6362079,-1.172009,-0.6150572,-1.824421,-1.483286,-2.077819,-1.788888,-2.179807,-1.584775,-1.553913,-2.131181,-1.021047,0.9448999,0.6523638,1.474982,0.515937,0.8173872,1.01478,0.8759322,0.5585865,0.7431664,0.300956,1.034744,0.9691997,0.5700126,0.6232018,0.5926797,1.092514,0.3748828,0.5127776,0.8862792,1.181855
10.13807,-1.160999,0.0557175,-1.652776,-1.683907,-0.07786419,-1.234321,-1.227595,0.1554586,-0.4616006,-1.115831,-0.1068172,-1.520701,-1.067013,-1.580161,-1.261689,-1.339851,-1.270596,-1.103502,-1.590963,-0.7364472,0.9453951,0.6581979,1.48511,0.5220625,0.8235744,1.019627,0.8780666,0.5770957,0.7383827,0.3145857,1.0521,0.9836618,0.6361244,0.6558431,0.5927742,1.108044,0.3939201,0.5568806,0.8928953,1.178333
10.26607,-0.9100375,0.2652111,-1.506778,-1.411812,0.08636186,-0.9912265,-1.056559,0.3052047,-0.3035269,-0.9928387,0.1503665,-1.341088,-0.8617676,-1.441357,-1.122961,-1.144055,-1.163973,-0.9979867,-1.49834,-0.6811556,0.969745,0.6629999,1.476484,0.533788,0.8216799,1.021016,0.8682922,0.5810742,0.7385654,0.3057588,1.051781,0.9818255,0.6495126,0.6674704,0.596361,1.105349,0.4031732,0.565622,0.8907426,1.181252
10.39407,-0.8246124,0.3318233,-1.44192,-1.350582,0.131833,-0.9595867,-1.060865,0.3243926,-0.3023672,-0.9634812,0.1518117,-1.361482,-0.8683509,-1.461494,-1.100744,-1.180548,-1.158072,-1.027092,-1.522454,-0.6893173,0.9526976,0.6626301,1.475374,0.5373765,0.8189395,1.013495,0.8690675,0.5825917,0.7365419,0.3013845,1.047874,0.9840274,0.6242726,0.6635441,0.5930606,1.098575,0.4026042,0.5535289,0.8875319,1.177242
10.52206,-0.8864605,0.341082,-1.444094,-1.338579,0.1300185,-0.986464,-1.086007,0.3183649,-0.3145483,-0.9792263,0.09039549,-1.428381,-0.9120739,-1.529128,-1.163397,-1.295889,-1.203846,-1.108703,-1.641972,-0.7555092,0.9849471,0.6619781,1.483524,0.5387928,0.8130323,1.013979,0.8719521,0.5800129,0.7428432,0.3151595,1.046115,0.9873341,0.6175376,0.667048,0.5757325,1.099054,0.3965971,0.5318028,0.8823068,1.18328
10.65006,-0.9338049,0.2875098,-1.479334,-1.404353,0.07714439,-1.066889,-1.145942,0.2670213,-0.3860105,-1.001079,-0.03223935,-1.514456,-1.072639,-1.644281,-1.279284,-1.471807,-1.268438,-1.195784,-1.776486,-0.8252038,0.9924012,0.6597073,1.480137,0.5409936,0.8102974,1.015291,0.8793137,0.576439,0.7556605,0.319761,1.040887,0.98848,0.6170354,0.6632122,0.5649287,1.098268,0.3865795,0.5081288,0.8792032,1.183112
10.77806,-0.9154586,0.2337068,-1.518275,-1.490537,0.01267146,-1.155346,-1.208459,0.211145,-0.4379612,-1.036883,-0.1722982,-1.611863,-1.170675,-1.757644,-1.457449,-1.655211,-1.351397,-1.326502,-1.9233,-0.9011132,0.9414043,0.6590732,1.490567,0.5394111,0.8147671,1.009292,0.8882894,0.5730273,0.7557476,0.319843,1.037039,0.9891982,0.5994305,0.6573952,0.6057644,1.098451,0.3867324,0.5148776,0.8771784,1.190386
10.90606,-1.057797,0.1666586,-1.581358,-1.586098,-0.05614461,-1.261663,-1.269039,0.1520237,-0.5041934,-1.082554,-0.3070368,-1.71858,-1.316777,-1.877461,-1.56749,-1.83903,-1.427582,-1.443518,-2.072728,-0.9719065,0.98528,0.6580706,1.487553,0.5366369,0.8140263,1.01249,0.8959035,0.5665721,0.7580971,0.2960796,1.03593,0.9925126,0.6223688,0.6556129,0.5936516,1.098306,0.3809887,0.5252444,0.8803032,1.192064
11.03406,-1.077934,0.07973207,-1.66867,-1.691066,-0.1480887,-1.379569,-1.353117,0.07758998,-0.5786823,-1.132486,-0.4372872,-1.802019,-1.415612,-1.974713,-1.661166,-1.979116,-1.448424,-1.441811,-1.90315,-0.9260163,0.9559551,0.6516736,1.48442,0.532729,0.8044212,1.009686,0.9048807,0.5642477,0.7652286,0.2986279,1.034449,0.9881548,0.6032394,0.6519079,0.5768483,1.094188,0.3755809,0.5357437,0.882026,1.177973
11.16206,-0.9749274,0.1784666,-1.554754,-1.502604,0.03455432,-1.102878,-1.156241,0.244436,-0.3755679,-1.062155,0.06230859,-1.476631,-0.895704,-1.486521,-1.251669,-1.188253,-1.158349,-0.9604051,-1.442102,-0.6658779,0.9552043,0.6552345,1.485234,0.5406497,0.8112823,1.012991,0.9025204,0.5763026,0.76806,0.3107731,1.051287,1.004852,0.6236862,0.6821817,0.5989006,1.11166,0.3972421,0.5454863,0.8910164,1.178898
11.29006,-0.7280419,0.3650419,-1.408883,-1.264909,0.1885633,-0.8746701,-1.007338,0.3837294,-0.2317038,-0.9376226,0.2775208,-1.304009,-0.6751121,-1.352775,-1.087216,-1.028124,-1.071139,-0.9020954,-1.376458,-0.6144124,0.9736753,0.6588273,1.494467,0.5502174,0.8051409,1.010188,0.8941193,0.5826876,0.7699546,0.302322,1.050438,1.007914,0.618983,0.6842422,0.5908772,1.106264,0.397799,0.5570452,0.883616,1.175154
11.41806,-0.7010799,0.4247789,-1.39245,-1.217607,0.2171084,-0.8650349,-1.021617,0.3970908,-0.2327646,-0.912873,0.2641453,-1.315321,-0.7929789,-1.385209,-1.124871,-1.081941,-1.089493,-0.9337819,-1.425565,-0.6521749,0.9754398,0.6594867,1.492513,0.5496898,0.8070465,1.008197,0.8964313,0.5758459,0.7635086,0.3012471,1.051294,1.002116,0.6393235,0.6826854,0.6388535,1.106432,0.4005838,0.5401601,0.8821206,1.179337
11.54606,-0.6974902,0.4283394,-1.378048,-1.230664,0.2086761,-0.9011847,-1.073135,0.3699673,-0.2707401,-0.9271704,0.1843256,-1.387337,-0.8435707,-1.473735,-1.221836,-1.220962,-1.150755,-1.049093,-1.566288,-0.7072003,0.9700226,0.6601337,1.484163,0.5480734,0.8034317,1.006381,0.9100681,0.5778388,0.7650074,0.3156523,1.044948,1.00854,0.6101322,0.6825414,0.6236025,1.107042,0.3982762,0.5441792,0.8767946,1.18179
11.67406,-0.7805271,0.375495,-1.402827,-1.310256,0.1563108,-0.9934272,-1.134909,0.3212393,-0.3430192,-0.9711685,0.0506023,-1.481305,-1.012336,-1.599642,-1.232501,-1.408783,-1.222904,-1.171929,-1.719772,-0.7875601,0.964869,0.6568149,1.486781,0.5468515,0.7988746,1.00499,0.9137706,0.5665433,0.7695519,0.3191308,1.040942,1.009809,0.6203421,0.6776575,0.591436,1.10552,0.3898149,0.5371174,0.8747414,1.184705
11.80206,-0.8877825,0.3010662,-1.478519,-1.400945,0.08937427,-1.10146,-1.20486,0.2542123,-0.4103673,-1.000228,-0.09638973,-1.584565,-1.129874,-1.730322,-1.389417,-1.601551,-1.305688,-1.317279,-1.869967,-0.8561723,0.9679548,0.6561183,1.487992,0.540721,0.7952507,1.005837,0.9244835,0.5656766,0.7683342,0.3164117,1.035101,1.011575,0.5989949,0.6746767,0.5937974,1.106343,0.3842742,0.5383266,0.8726447,1.18572
11.93006,-1.013987,0.221787,-1.522983,-1.508971,0.0118488,-1.20319,-1.277119,0.1874814,-0.4722016,-1.05601,-0.2456973,-1.686335,-1.26321,-1.845505,-1.472998,-1.785586,-1.391031,-1.385254,-2.020428,-0.9391838,0.9928901,0.6527818,1.484729,0.5386407,0.7960945,1.004656,0.9360015,0.5610369,0.770375,0.3149859,1.034099,1.009923,0.5984741,0.6676109,0.5709717,1.10089,0.3799115,0.51613,0.8736588,1.194345
12.05805,-1.04841,0.1363272,-1.590761,-1.629341,-0.09271198,-1.336184,-1.357944,0.1253342,-0.5501744,-1.095837,-0.3679764,-1.780296,-1.397618,-1.93304,-1.591957,-1.894329,-1.384197,-1.339977,-1.813911,-0.8738759,0.972595,0.6457533,1.479097,0.538353,0.7911722,1.00926,0.9421865,0.5476685,0.7779439,0.3008794,1.032598,1.0179,0.6265454,0.6646917,0.556138,1.099105,0.3756901,0.5274647,0.8766903,1.176476
12.18605,-0.9452443,0.2469238,-1.480195,-1.404914,0.1073432,-1.016504,-1.131851,0.2894169,-0.3264004,-1.012336,0.1615952,-1.404518,-0.8549968,-1.413477,-1.164119,-1.083815,-1.089038,-0.8963822,-1.326727,-0.5985909,0.9724243,0.6523858,1.479902,0.539543,0.7972142,1.005927,0.9422292,0.5705639,0.7795805,0.2925223,1.048391,1.025524,0.6384496,0.6935341,0.5897283,1.115839,0.3985759,0.5750578,0.8884879,1.173128
12.31405,-0.6863803,0.4420339,-1.33149,-1.155317,0.2669252,-0.7696465,-0.9640409,0.431339,-0.1628955,-0.8827494,0.4007972,-1.197917,-0.6372347,-1.267236,-0.9979537,-0.8941086,-0.9900244,-0.7237222,-1.247083,-0.5472454,0.9717231,0.6544585,1.474471,0.5454494,0.8004645,1.009616,0.9325739,0.5806223,0.7707162,0.3018223,1.053697,1.026352,0.6462548,0.6938999,0.6178472,1.111012,0.4023757,0.5432972,0.886251,1.171047
12.44205,-0.6748534,0.5179701,-1.292438,-1.112074,0.3168251,-0.7520322,-0.9719123,0.4508124,-0.1823133,-0.8589767,0.3857972,-1.220704,-0.6554676,-1.302324,-1.067428,-0.9397347,-1.013477,-0.8012674,-1.292158,-0.5716041,0.9563907,0.6592698,1.469647,0.5461237,0.7932252,1.005777,0.9330628,0.5772417,0.7661868,0.3083138,1.051583,1.022947,0.6320887,0.6903278,0.6303061,1.103089,0.4071594,0.5387826,0.8784277,1.172039
12.57005,-0.7223455,0.5171419,-1.270379,-1.118811,0.3043374,-0.7845494,-1.014409,0.4401201,-0.2284743,-0.8692111,0.3059184,-1.292331,-0.7794432,-1.400586,-1.056277,-1.090941,-1.066004,-0.9515255,-1.438383,-0.6559469,0.9559653,0.6578081,1.458406,0.540258,0.7924187,1.004919,0.9413718,0.5708487,0.7745795,0.3017307,1.042498,1.025291,0.611987,0.6880047,0.5798014,1.108473,0.3921002,0.5375584,0.8749949,1.178921
12.69805,-0.8146088,0.4543642,-1.332708,-1.217667,0.2330842,-0.8707832,-1.100302,0.3742808,-0.3037283,-0.9005446,0.1514461,-1.409445,-0.9272488,-1.521314,-1.243339,-1.291818,-1.148635,-1.116961,-1.594011,-0.7381374,0.9759799,0.6523137,1.471417,0.5399317,0.7839448,1.001373,0.9538046,0.574368,0.7725794,0.3037727,1.042364,1.026598,0.6064204,0.6800588,0.624634,1.103783,0.388299,0.540686,0.8685163,1.177881
12.82605,-0.8596937,0.3695983,-1.383124,-1.329437,0.1484852,-0.9739999,-1.174147,0.3129981,-0.3708692,-0.9368255,0.006628236,-1.512393,-1.048557,-1.66175,-1.31339,-1.49345,-1.211134,-1.18987,-1.754758,-0.8097687,0.9527909,0.6468326,1.475654,0.5285559,0.7863001,1.000467,0.9613929,0.5627375,0.7724388,0.2987714,1.03471,1.028525,0.5986784,0.6772814,0.6172521,1.10081,0.3731007,0.5183821,0.8735085,1.174199
12.95405,-0.9741889,0.2824156,-1.429739,-1.46033,0.05972796,-1.101575,-1.247937,0.2462302,-0.4383666,-1.005562,-0.1527798,-1.625382,-1.160389,-1.797909,-1.324851,-1.701505,-1.309212,-1.324057,-1.904262,-0.8953143,0.9521228,0.6420256,1.469327,0.5183853,0.7833145,1.003646,0.9732878,0.5568328,0.7683285,0.3058959,1.029292,1.026986,0.5783049,0.6697041,0.5518979,1.097035,0.3808524,0.5075562,0.8649662,1.182421
13.08205,-1.021729,0.1941533,-1.507652,-1.572123,-0.03396735,-1.224914,-1.326842,0.1646778,-0.5132886,-1.062585,-0.3286625,-1.753037,-1.307766,-1.935806,-1.603448,-1.940305,-1.390724,-1.431124,-1.982834,-0.9644544,0.9375166,0.6364616,1.460191,0.5121068,0.7808382,1.001733,0.9823204,0.5555045,0.7761436,0.2979129,1.026031,1.032111,0.5583468,0.65826,0.6004175,1.096213,0.3662348,0.4988126,0.8689882,1.174088
13.21005,-1.083193,0.1678355,-1.447438,-1.497104,0.04948766,-1.070233,-1.220973,0.2603814,-0.3651331,-1.035998,0.07821247,-1.480504,-0.9102197,-1.472663,-1.180328,-1.15582,-1.116518,-0.9215225,-1.369611,-0.6415327,0.9177141,0.6344451,1.447266,0.5232222,0.7877794,1.001567,0.9834758,0.5651665,0.7712833,0.3059833,1.042096,1.034754,0.608997,0.6856601,0.5921198,1.106595,0.3997926,0.5429606,0.8789595,1.166178
13.33805,-0.7387201,0.4096493,-1.338512,-1.194367,0.2391269,-0.7848058,-1.003859,0.4203954,-0.2040218,-0.9146166,0.3717535,-1.233332,-0.6656026,-1.259772,-0.903731,-0.8674654,-0.9601684,-0.7414756,-1.21981,-0.5333007,0.9394777,0.6390581,1.459907,0.5362053,0.786294,1.005742,0.9746751,0.5706925,0.7835085,0.3004856,1.045124,1.038004,0.6305636,0.6940242,0.5829709,1.111656,0.4016115,0.5502701,0.8799663,1.171847
13.46605,-0.7044084,0.5144888,-1.240064,-1.110367,0.3103968,-0.7326724,-0.9803624,0.4615201,-0.1641814,-0.871076,0.3733196,-1.227703,-0.6600407,-1.291711,-0.9004889,-0.9059198,-0.9782155,-0.812932,-1.263088,-0.5732352,0.957202,0.6439472,1.443084,0.5379463,0.7781597,1.004816,0.9741724,0.5677904,0.7697831,0.3079877,1.042641,1.033383,0.5934231,0.6891069,0.5668014,1.098959,0.3985816,0.5419408,0.8751562,1.170143
13.59404,-0.7244928,0.5271512,-1.227582,-1.114032,0.302163,-0.7512212,-0.9969605,0.4481202,-0.180845,-0.848888,0.3114276,-1.272335,-0.7419168,-1.354551,-1.064878,-1.020847,-1.017221,-0.8781425,-1.372393,-0.6322736,0.9392374,0.6416934,1.440269,0.538564,0.7807228,1.001759,0.9776968,0.5675135,0.7699093,0.2971002,1.037686,1.028451,0.6131527,0.6846015,0.6329707,1.099193,0.3945583,0.5121638,0.8675639,1.172734
13.72204,-0.7575362,0.4734167,-1.274571,-1.18134,0.250698,-0.8339224,-1.066288,0.3993102,-0.2536718,-0.8972214,0.1807223,-1.376289,-0.9249196,-1.471765,-1.071006,-1.200201,-1.087455,-1.029574,-1.525347,-0.7159541,0.9401997,0.6365208,1.450586,0.5404227,0.772823,1.001828,0.9839625,0.5667332,0.7738118,0.3098299,1.031996,1.032383,0.6186526,0.678471,0.5849691,1.095185,0.3858549,0.5258682,0.8671315,1.16965
13.85004,-0.8664982,0.393673,-1.310174,-1.260175,0.17808,-0.9365239,-1.136808,0.3323648,-0.3144505,-0.934531,0.04289651,-1.468713,-1.033911,-1.590604,-1.155638,-1.377643,-1.172121,-1.175763,-1.679633,-0.7796336,0.9518839,0.6329263,1.446351,0.5353462,0.7744544,1.002405,0.9903953,0.5631275,0.7740822,0.3025012,1.028226,1.026888,0.6053428,0.6745107,0.5764133,1.091506,0.3860675,0.5329481,0.8678523,1.171415
13.97804,-0.9428089,0.3194796,-1.369536,-1.361854,0.1031321,-1.037661,-1.21058,0.2554697,-0.3832063,-0.9854394,-0.09995212,-1.579596,-1.133348,-1.704471,-1.271794,-1.580243,-1.247964,-1.241915,-1.828156,-0.8698986,0.947976,0.6292458,1.446457,0.5350767,0.7719455,0.9967782,1.001628,0.5597631,0.7718058,0.2975294,1.021206,1.029201,0.5953667,0.6630872,0.5278985,1.090133,0.3720826,0.4963327,0.8643023,1.176984
14.10604,-1.014818,0.2411979,-1.434849,-1.466982,0.02000896,-1.164998,-1.291777,0.1978033,-0.4539407,-1.06356,-0.2723404,-1.695756,-1.293168,-1.852307,-1.489047,-1.81461,-1.355312,-1.384472,-1.976948,-0.9521258,0.9392856,0.6254116,1.44848,0.5331993,0.7688089,0.9981714,1.011297,0.5512213,0.7776762,0.3066719,1.018275,1.028076,0.5879536,0.6626531,0.5576233,1.087165,0.3623905,0.487552,0.865045,1.17922
14.23404,-1.087516,0.1571629,-1.475512,-1.494909,0.03572477,-1.123812,-1.254897,0.2330188,-0.375252,-1.060503,-0.0006981827,-1.526079,-0.9778766,-1.49032,-1.1735,-1.199635,-1.124615,-0.9362231,-1.426645,-0.6939185,0.9216018,0.6203028,1.433771,0.5300655,0.772611,0.998049,1.010219,0.5593079,0.776578,0.2957808,1.031057,1.038646,0.6001008,0.6798218,0.5755154,1.099724,0.3790144,0.511287,0.8728863,1.166422
14.36204,-0.8093027,0.3922212,-1.322281,-1.20598,0.2242763,-0.8350195,-1.024,0.3761313,-0.1856707,-0.9411887,0.279315,-1.273497,-0.7106104,-1.276451,-0.9993083,-0.8922756,-0.9917145,-0.8205782,-1.274062,-0.5690283,0.9456669,0.6244699,1.441871,0.5376801,0.7693079,1.005893,1.003575,0.5715585,0.7784801,0.2911352,1.034951,1.031041,0.6081287,0.6866572,0.5684446,1.095722,0.3936746,0.5534672,0.8731449,1.163584
14.49004,-0.7218384,0.4750903,-1.261332,-1.133806,0.271348,-0.7779901,-0.9977993,0.4080814,-0.1748867,-0.903854,0.2750166,-1.263551,-0.747974,-1.300424,-0.963587,-0.9520939,-1.002911,-0.8817082,-1.331709,-0.6147014,0.9519685,0.6287112,1.435062,0.5378004,0.7689077,1.000252,0.994159,0.5660439,0.7751658,0.3046429,1.0269,1.021169,0.6019043,0.6762757,0.5477703,1.092393,0.3798568,0.5432247,0.8678635,1.167385
14.61804,-0.7609109,0.4718221,-1.250819,-1.151192,0.2665576,-0.8118484,-1.029962,0.398026,-0.1889177,-0.8956735,0.2125602,-1.327912,-0.7585332,-1.363768,-1.011721,-1.067262,-1.059864,-0.9539534,-1.453196,-0.6777549,0.9452622,0.6276004,1.42729,0.5395676,0.7654938,1.004573,1.000178,0.5674339,0.7743701,0.2981817,1.02319,1.022021,0.5634496,0.6752329,0.5486417,1.092172,0.3811026,0.5370098,0.8647021,1.171359
14.74604,-0.7911423,0.4150153,-1.301263,-1.217263,0.1962593,-0.9097854,-1.113093,0.3443535,-0.26924,-0.9324436,0.07713673,-1.430942,-0.981902,-1.484696,-1.163563,-1.276597,-1.142697,-1.10014,-1.626889,-0.7621395,0.94124,0.6214343,1.423136,0.5334892,0.7632673,1.003329,1.005709,0.5572514,0.7831384,0.2931399,1.019068,1.018134,0.6059327,0.6696462,0.544726,1.094552,0.3741811,0.5128775,0.8643435,1.174954
14.87404,-0.8188605,0.3310332,-1.3632,-1.325885,0.1244573,-1.019866,-1.191313,0.262736,-0.343549,-0.9967633,-0.06923561,-1.533349,-1.112542,-1.612251,-1.29613,-1.464779,-1.233174,-1.229779,-1.780274,-0.8446733,0.9099723,0.6171582,1.431164,0.5371401,0.7621724,1.001716,1.009347,0.559583,0.7801565,0.2992728,1.014564,1.015647,0.5825995,0.6591245,0.5537964,1.084727,0.3641639,0.5222337,0.8629765,1.180086
15.00204,-0.9455126,0.2605588,-1.396753,-1.435165,0.04404717,-1.132944,-1.261397,0.1998376,-0.4229659,-1.044025,-0.231778,-1.652103,-1.233466,-1.750261,-1.391535,-1.695032,-1.334399,-1.276084,-1.93712,-0.9250311,0.9231783,0.6161163,1.433357,0.5322841,0.7625519,0.9958303,1.01279,0.5507982,0.7806109,0.2976453,1.01035,1.01554,0.572508,0.6480904,0.5240274,1.084294,0.3620467,0.4661414,0.8634191,1.181316
15.13004,-1.047607,0.1755085,-1.46121,-1.546333,-0.03492984,-1.264242,-1.339102,0.119063,-0.4921105,-1.093368,-0.3878782,-1.769605,-1.402008,-1.890494,-1.60244,-1.907478,-1.425106,-1.506271,-2.11041,-1.02182,0.9129298,0.6141235,1.429854,0.5251759,0.7604965,0.9998387,1.020065,0.5434492,0.7798463,0.2922074,1.005713,1.01204,0.5891885,0.641946,0.5251238,1.076861,0.3486317,0.5185839,0.8636995,1.186945
15.25803,-1.126435,0.07429942,-1.56151,-1.654344,-0.117736,-1.355394,-1.398019,0.08340768,-0.5039545,-1.152895,-0.2861208,-1.722382,-1.251749,-1.674697,-1.391042,-1.517274,-1.260968,-1.130469,-1.621368,-0.8090014,0.9131861,0.6058688,1.427902,0.5220465,0.7554437,1.000961,1.024835,0.5461898,0.7729052,0.3035861,1.014133,1.014978,0.5994442,0.6568609,0.5703365,1.091771,0.3568657,0.5162168,0.86913,1.169493
15.38603,-0.9079368,0.2906705,-1.360452,-1.324003,0.1275328,-0.9681845,-1.096258,0.2998554,-0.2406707,-1.026303,0.1566944,-1.356332,-0.8073395,-1.296944,-1.058613,-0.9629114,-1.062069,-0.7929986,-1.300016,-0.6063013,0.9219545,0.6178588,1.429241,0.5289909,0.7661694,1.003999,1.015908,0.5563067,0.7734383,0.2935598,1.023911,1.010587,0.6007019,0.6673577,0.5668734,1.093494,0.3881864,0.5288381,0.8747069,1.172482
15.51403,-0.6967111,0.4480212,-1.264917,-1.148877,0.2653916,-0.8088862,-0.9715269,0.386538,-0.151474,-0.9208414,0.2619196,-1.26204,-0.7756045,-1.254415,-0.9168573,-0.9237491,-1.029463,-0.803587,-1.327869,-0.6188926,0.9136307,0.6199233,1.440563,0.5334283,0.7654247,1.00328,0.9997579,0.5638383,0.7699469,0.299954,1.019198,1.00008,0.6106298,0.6600059,0.5288439,1.081719,0.3774917,0.5205583,0.870546,1.17459
15.64203,-0.7508813,0.4650694,-1.2306,-1.152722,0.2574561,-0.8264464,-1.001522,0.3926911,-0.1564629,-0.8930254,0.2237165,-1.29101,-0.8115274,-1.292236,-0.9339991,-1.007522,-1.055406,-0.8761504,-1.419678,-0.6739163,0.9182866,0.6210105,1.429324,0.5282785,0.7648685,0.9989792,0.9956566,0.5585823,0.7614532,0.2841463,1.015289,0.9879106,0.6148508,0.6561307,0.5216709,1.083925,0.3686461,0.525566,0.8671532,1.178629
15.77003,-0.7396486,0.4296236,-1.269678,-1.211708,0.2166058,-0.9119567,-1.072483,0.3537401,-0.2260804,-0.9305177,0.1026772,-1.392755,-0.9273827,-1.412594,-1.137605,-1.199272,-1.136517,-1.06868,-1.584424,-0.7521225,0.9098068,0.6181456,1.434691,0.5336691,0.7628558,1.004207,0.9982991,0.5521466,0.763216,0.2919077,1.010903,0.9842501,0.5941024,0.6500731,0.5501817,1.082017,0.3657439,0.5318828,0.8688625,1.177609
15.89803,-0.8615846,0.355531,-1.285381,-1.29423,0.1463157,-1.020536,-1.146711,0.2910789,-0.3168406,-0.9732153,-0.04537005,-1.507073,-1.061777,-1.541547,-1.282875,-1.41701,-1.220025,-1.122237,-1.743163,-0.8573068,0.9386747,0.6159953,1.436287,0.5310243,0.7596137,1.002771,0.9952413,0.5460825,0.7671717,0.2839682,1.005275,0.9832187,0.586731,0.6382493,0.5795876,1.075844,0.3543949,0.4909571,0.8683183,1.188851
16.02603,-0.9216022,0.2763923,-1.341284,-1.397398,0.06957287,-1.145985,-1.228543,0.2153274,-0.3796302,-1.017589,-0.2062081,-1.62607,-1.20741,-1.694793,-1.395355,-1.657761,-1.314989,-1.291098,-1.912973,-0.9477139,0.9308172,0.6151608,1.444157,0.5294182,0.7567374,1.004701,1.003583,0.5449454,0.7606372,0.2884741,0.9993697,0.9786018,0.5786926,0.6372745,0.5541174,1.077025,0.3509657,0.4893018,0.8657492,1.194076
16.15403,-1.014866,0.1899838,-1.416858,-1.512597,-0.03246895,-1.269599,-1.31396,0.1375117,-0.4666569,-1.085274,-0.3714594,-1.742134,-1.410632,-1.827139,-1.501141,-1.89024,-1.404877,-1.426611,-2.071531,-1.045015,0.9319879,0.6098071,1.442464,0.525771,0.754275,1.00552,1.008794,0.5392967,0.7644848,0.2913819,0.9948829,0.9727199,0.5904432,0.6218033,0.4950465,1.070847,0.3440414,0.4880004,0.8648547,1.198815
16.28203,-1.127902,0.09284333,-1.490273,-1.638909,-0.1469078,-1.399971,-1.392848,0.05730084,-0.5405696,-1.161504,-0.5527419,-1.873357,-1.55855,-1.982994,-1.591448,-2.139859,-1.498904,-1.550276,-2.091732,-1.09852,0.9440893,0.604822,1.43757,0.5225413,0.754626,1.001891,1.011175,0.5336651,0.7619163,0.2890171,0.9932472,0.975434,0.584027,0.6138197,0.4616686,1.070064,0.3408152,0.4903544,0.874055,1.188473
16.41003,-1.093982,0.09855992,-1.4402,-1.542701,-0.01740476,-1.206025,-1.239264,0.1812919,-0.3656655,-1.118713,-0.09481569,-1.573987,-1.041363,-1.466497,-1.186329,-1.255211,-1.184005,-0.9789063,-1.49952,-0.7844727,0.8972631,0.6084118,1.447715,0.5243718,0.7645193,1.003577,1.010175,0.5456383,0.758363,0.3019336,1.007384,0.9871668,0.5915831,0.6453181,0.5496579,1.080816,0.3638277,0.5246989,0.8795611,1.186095
16.53803,-0.8101258,0.3301708,-1.274893,-1.268041,0.1566529,-0.9353139,-1.025419,0.3345828,-0.2010158,-0.9870099,0.1737673,-1.317858,-0.8351688,-1.26651,-0.9009755,-0.9931462,-1.042462,-0.8975781,-1.374694,-0.6868586,0.9148763,0.6134583,1.437346,0.5310566,0.7649989,1.006292,0.9976502,0.551541,0.7569033,0.3022632,1.007395,0.9652033,0.605234,0.6449053,0.4944414,1.083885,0.3702115,0.5703009,0.8801963,1.189187
16.66603,-0.775222,0.4163277,-1.223452,-1.199345,0.2080909,-0.9114802,-1.002873,0.3593117,-0.1788009,-0.9351829,0.1623778,-1.330815,-0.9178391,-1.298872,-0.963118,-1.059206,-1.067319,-0.9168226,-1.431629,-0.7274768,0.9379058,0.616612,1.437646,0.5289087,0.7644577,1.003515,0.9855124,0.5506593,0.7431046,0.2812549,1.005106,0.9544725,0.6195176,0.6305455,0.5356227,1.070661,0.3633831,0.5331389,0.8768649,1.191474
16.79402,-0.8180823,0.4168995,-1.218862,-1.216445,0.1976645,-0.9553272,-1.031464,0.3509588,-0.2129003,-0.9244791,0.09446986,-1.38497,-0.9359912,-1.386936,-1.049112,-1.205303,-1.118895,-1.025223,-1.563547,-0.7946587,0.9438471,0.61993,1.442269,0.5292299,0.7685372,1.00258,0.9822932,0.5507844,0.7430064,0.2814153,0.9996362,0.9510896,0.5768432,0.6284978,0.5478345,1.069838,0.3604757,0.5135307,0.8741434,1.195496
16.92202,-0.8746169,0.3639132,-1.256102,-1.292952,0.1418989,-1.044191,-1.098091,0.29651,-0.2678229,-0.9819984,-0.04480901,-1.482504,-1.090802,-1.517462,-1.172891,-1.419735,-1.192422,-1.168985,-1.724972,-0.8955254,0.9417514,0.6176147,1.44154,0.527656,0.7621907,1.000712,0.9828753,0.5482576,0.7354128,0.3017823,0.9973028,0.9434376,0.5862097,0.6191295,0.5641616,1.068656,0.350316,0.5117362,0.8744626,1.201471
17.05002,-0.9556544,0.2803642,-1.302729,-1.389048,0.0564169,-1.158481,-1.177964,0.2402746,-0.3433916,-1.027308,-0.188329,-1.589438,-1.211985,-1.645876,-1.274286,-1.633418,-1.267326,-1.302367,-1.886253,-0.9817267,0.9194946,0.6150444,1.445809,0.526224,0.7669035,1.001965,0.9922191,0.5462921,0.7392912,0.3037811,0.9895159,0.9446824,0.5694265,0.6139857,0.5356337,1.066097,0.3439708,0.5022831,0.8769655,1.203259
17.17802,-0.9733769,0.1986197,-1.354655,-1.496507,-0.03029238,-1.282614,-1.245182,0.1750514,-0.4097279,-1.069574,-0.3475672,-1.697906,-1.356065,-1.781006,-1.400357,-1.858502,-1.364867,-1.405458,-2.023974,-1.072084,0.9015309,0.6073578,1.437838,0.5254604,0.7648519,1.008088,0.9940428,0.5374101,0.7374153,0.2912223,0.9856125,0.9418632,0.5762047,0.6039699,0.5131676,1.059592,0.3498388,0.4922338,0.8724197,1.205625
17.30602,-1.045498,0.1118936,-1.427073,-1.611943,-0.1275896,-1.398424,-1.314234,0.1022567,-0.4802968,-1.151741,-0.5247328,-1.81672,-1.481552,-1.932089,-1.552987,-2.113945,-1.459837,-1.523573,-2.183856,-1.16275,0.8752629,0.6031826,1.441664,0.5246871,0.7642529,1.005313,0.9946794,0.5345519,0.7378332,0.2955857,0.9844968,0.94247,0.5434028,0.5945381,0.5210344,1.05622,0.3399408,0.4796748,0.8764039,1.208862
17.43402,-1.215706,0.02607905,-1.471735,-1.639247,-0.1035421,-1.36587,-1.283584,0.1449023,-0.4178324,-1.125347,-0.2367605,-1.630153,-1.217765,-1.551116,-1.241919,-1.455182,-1.223421,-1.126712,-1.638611,-0.8992019,0.9118721,0.6004932,1.442711,0.5215766,0.768838,1.009499,0.9990105,0.544388,0.7461606,0.278912,0.9954088,0.9437933,0.6008751,0.6204602,0.5451093,1.072728,0.3558604,0.5180305,0.8854308,1.196137
17.56202,-0.9031065,0.257909,-1.30776,-1.358286,0.08102772,-1.071323,-1.055649,0.2839096,-0.2321499,-1.023089,0.03275702,-1.401749,-0.9655063,-1.340596,-1.057248,-1.16285,-1.107915,-0.9349609,-1.509847,-0.8059325,0.9246763,0.6058822,1.42935,0.529976,0.7653326,1.009226,0.9831812,0.5490763,0.7397805,0.2855861,0.9943212,0.9419091,0.5934349,0.6250038,0.5490469,1.073622,0.3656937,0.5092799,0.882378,1.201236
17.69002,-0.8264934,0.3472784,-1.283043,-1.297558,0.1166485,-1.03614,-1.041281,0.3201439,-0.2299026,-0.9975399,0.01734118,-1.404128,-1.027473,-1.381826,-1.023284,-1.234406,-1.131826,-1.040194,-1.567628,-0.8418947,0.9054948,0.6124403,1.440495,0.5246982,0.7755365,1.005186,0.9749643,0.5475765,0.7320688,0.303056,0.9904611,0.9304378,0.6095471,0.6130234,0.5397642,1.065346,0.3606964,0.5330318,0.8758679,1.20433
17.81802,-0.8259304,0.3520146,-1.297665,-1.316422,0.124375,-1.056296,-1.060865,0.3112227,-0.2431491,-0.9781054,-0.04228948,-1.429338,-1.048439,-1.451753,-1.12119,-1.353972,-1.163214,-1.108565,-1.696116,-0.902273,0.9011776,0.6147906,1.440809,0.5241464,0.7724653,1.002918,0.9738723,0.5490212,0.7272016,0.2908348,0.9863839,0.9198543,0.5744724,0.6081186,0.5345256,1.063534,0.3500867,0.5177174,0.8792281,1.211237
17.94602,-0.9344455,0.2979787,-1.357944,-1.39791,0.06427158,-1.151473,-1.126578,0.2531623,-0.3068845,-1.021171,-0.1642005,-1.53397,-1.190824,-1.576719,-1.258528,-1.567479,-1.238478,-1.225056,-1.858206,-0.9762203,0.933495,0.6151586,1.44439,0.5248882,0.7736439,1.003306,0.9733812,0.5462704,0.73266,0.2944164,0.97913,0.9217845,0.5731387,0.6028065,0.5368352,1.063527,0.3457324,0.5006024,0.8767281,1.213947
18.07402,-0.956405,0.2144853,-1.407193,-1.495989,-0.01859102,-1.261991,-1.20559,0.1866181,-0.3733637,-1.069624,-0.3175039,-1.622555,-1.35724,-1.703111,-1.380074,-1.772627,-1.325041,-1.375889,-2.005819,-1.057931,0.9032348,0.6092576,1.438358,0.5213723,0.7744927,1.006123,0.9777653,0.5446218,0.7389536,0.2940155,0.9780012,0.9149564,0.5850665,0.5945284,0.5155433,1.059542,0.3460819,0.49988,0.8778187,1.216686
18.20201,-1.035263,0.1277654,-1.491014,-1.600943,-0.1164034,-1.378498,-1.278438,0.1247404,-0.434465,-1.125754,-0.4709543,-1.734305,-1.470765,-1.833118,-1.553396,-1.986779,-1.428416,-1.44853,-2.166769,-1.145928,0.9107729,0.6051434,1.442384,0.5184512,0.7742178,1.007985,0.9825574,0.532767,0.7334886,0.2960712,0.9741735,0.9198163,0.5814134,0.5897073,0.5421576,1.056678,0.3437465,0.4653343,0.8805041,1.222663
18.33002,-1.149989,0.0449916,-1.566983,-1.709337,-0.2063525,-1.498874,-1.358566,0.0445255,-0.5083985,-1.174247,-0.6233972,-1.838471,-1.602479,-1.964697,-1.654614,-2.217313,-1.510649,-1.62331,-2.324986,-1.232952,0.9133016,0.6002479,1.43859,0.5134237,0.7758177,1.010519,0.988618,0.5328918,0.7402749,0.2827057,0.9710332,0.9145557,0.5700209,0.5836885,0.4706625,1.055225,0.3286007,0.4781331,0.8798441,1.229201
18.45801,-1.182305,-0.05675104,-1.659378,-1.792801,-0.2457942,-1.534154,-1.369207,0.0526246,-0.4764202,-1.191275,-0.4282574,-1.726725,-1.351123,-1.654869,-1.316775,-1.650093,-1.312777,-1.250116,-1.779802,-0.985135,0.9023982,0.5971777,1.432468,0.5092961,0.7802169,1.011193,0.9824827,0.5391757,0.7349572,0.2846028,0.981245,0.9226357,0.5813521,0.6074206,0.5045863,1.066544,0.3464834,0.5222447,0.8823326,1.208318
18.58601,-0.9133662,0.2010681,-1.445332,-1.474397,0.002410818,-1.157441,-1.095294,0.2458888,-0.248165,-1.09608,-0.04287326,-1.401833,-0.9754351,-1.33498,-1.134762,-1.186846,-1.114509,-0.9421368,-1.516488,-0.8193541,0.8992642,0.607011,1.433242,0.520658,0.7812774,1.009679,0.9733203,0.5483247,0.7302216,0.3013303,0.9861997,0.9099424,0.5752162,0.6130068,0.5431104,1.066454,0.3525202,0.5385381,0.8839648,1.212709
18.71401,-0.8045821,0.3427466,-1.37383,-1.338846,0.1103312,-1.047515,-1.019055,0.3122396,-0.2060039,-1.004349,0.00720488,-1.355789,-0.9470434,-1.332167,-1.097003,-1.205084,-1.108555,-1.023238,-1.568698,-0.8377604,0.9359183,0.615648,1.445522,0.5214723,0.7837246,1.007298,0.958472,0.5507416,0.7334291,0.3020939,0.9827663,0.904389,0.5707351,0.6053412,0.5321547,1.063646,0.3505918,0.5429526,0.8809249,1.212548
18.84201,-0.8366725,0.3552689,-1.361087,-1.346164,0.1074012,-1.072206,-1.042984,0.3218102,-0.2066283,-0.9705062,-0.02508667,-1.387186,-1.000383,-1.376154,-1.065976,-1.287191,-1.143682,-1.083783,-1.669572,-0.8839276,0.9284614,0.6175731,1.446471,0.5191146,0.7882602,1.009532,0.9551412,0.5498234,0.7211063,0.2891242,0.978503,0.9032524,0.5711106,0.5993499,0.4970339,1.061162,0.3494486,0.5388611,0.8811814,1.21769
18.97001,-0.8461402,0.3215267,-1.377092,-1.403807,0.05768481,-1.149708,-1.094185,0.2751292,-0.2694208,-0.9946646,-0.1464266,-1.469745,-1.159325,-1.497369,-1.203394,-1.476438,-1.212423,-1.239616,-1.813575,-0.9745644,0.9306445,0.6181105,1.440892,0.5172642,0.7905453,1.009034,0.949527,0.5469449,0.7246971,0.2787067,0.9776515,0.8942808,0.5906745,0.5952666,0.537901,1.058607,0.3438907,0.5387449,0.8758553,1.226558
19.09801,-0.9378499,0.2488207,-1.424777,-1.497295,-0.005257301,-1.247085,-1.165403,0.2204722,-0.3384068,-1.052472,-0.2878061,-1.560777,-1.289911,-1.633433,-1.324885,-1.684374,-1.302975,-1.313542,-1.963759,-1.049313,0.9325261,0.6169603,1.445979,0.5151185,0.7882766,1.008334,0.9567067,0.5382691,0.7279363,0.299793,0.9738594,0.8903942,0.5763355,0.5875202,0.5203256,1.055898,0.3475597,0.5053254,0.8796561,1.223382
19.22601,-1.021718,0.1793122,-1.503887,-1.603949,-0.08573314,-1.360788,-1.233076,0.1497434,-0.4212927,-1.086967,-0.4348641,-1.659551,-1.388703,-1.761516,-1.501185,-1.911305,-1.373228,-1.466609,-2.108269,-1.129961,0.9265011,0.613466,1.453871,0.5151003,0.7918998,1.007528,0.9623486,0.5395831,0.7294193,0.2988195,0.9683384,0.8887178,0.5582147,0.5759454,0.5456289,1.052834,0.3346464,0.5152652,0.877992,1.226421
19.35401,-1.088169,0.09398141,-1.5694,-1.710728,-0.1702799,-1.482844,-1.296829,0.07912671,-0.4897143,-1.145083,-0.5841264,-1.763469,-1.556937,-1.894842,-1.604446,-2.121218,-1.470631,-1.540042,-2.265478,-1.214867,0.910154,0.6132624,1.456699,0.5092533,0.7939178,1.012691,0.9648966,0.5368685,0.7320566,0.2926556,0.9655276,0.8829845,0.5720072,0.5690363,0.4926136,1.049633,0.3270179,0.487692,0.8773127,1.228846
19.48201,-1.205508,0.001324846,-1.648561,-1.828575,-0.2727129,-1.584159,-1.363859,0.02512665,-0.5327155,-1.177041,-0.5715482,-1.771278,-1.482971,-1.767933,-1.475217,-1.872249,-1.347953,-1.284602,-1.863641,-1.041639,0.9295636,0.6048625,1.448737,0.506907,0.7936231,1.009311,0.9675716,0.5313776,0.7332188,0.276628,0.9743683,0.8845012,0.5918488,0.5800029,0.5129429,1.053385,0.3328768,0.5216532,0.8830825,1.211357
19.61001,-0.9660651,0.1921101,-1.485772,-1.534644,-0.01077448,-1.216094,-1.069569,0.2325077,-0.2654697,-1.063868,-0.08684586,-1.388725,-1.019455,-1.334832,-1.132989,-1.204675,-1.097833,-0.9019586,-1.497696,-0.8218623,0.9072941,0.6197581,1.4495,0.5105686,0.7959489,1.01785,0.9567544,0.5491608,0.7278652,0.283654,0.9828352,0.8826725,0.5922198,0.6025702,0.5317797,1.058652,0.3536422,0.5301253,0.8889021,1.21118
19.738,-0.8273448,0.350272,-1.349922,-1.35098,0.1206901,-1.00955,-0.9309034,0.3566774,-0.1589351,-0.9576377,0.05385637,-1.262504,-0.8848287,-1.272414,-1.029146,-1.142084,-1.055797,-0.9401491,-1.481818,-0.8051344,0.9514951,0.6202266,1.440112,0.5139113,0.7972983,1.006847,0.9397171,0.5523484,0.7236527,0.3047872,0.9785616,0.8711594,0.5855995,0.5975975,0.5524272,1.053098,0.3578613,0.5532098,0.8779739,1.210513
19.866,-0.8067655,0.3823201,-1.346788,-1.350529,0.1290991,-1.032138,-0.942697,0.361377,-0.1681701,-0.9294789,0.02759892,-1.294466,-0.9179491,-1.309201,-1.005866,-1.195061,-1.064242,-0.9960454,-1.560043,-0.8407142,0.9182401,0.621985,1.442778,0.5111925,0.7965716,1.005399,0.9285449,0.5510065,0.7159438,0.2938552,0.9775106,0.8643783,0.5886092,0.5911322,0.5534427,1.049242,0.3535804,0.5279682,0.880316,1.209405
19.994,-0.8447379,0.3585374,-1.380519,-1.389473,0.09721535,-1.095275,-0.9879902,0.3278188,-0.2303756,-0.9476879,-0.08230765,-1.377832,-0.9894671,-1.425855,-1.080429,-1.369289,-1.122757,-1.114968,-1.703688,-0.9308115,0.9110326,0.6214228,1.461292,0.5096844,0.7985616,1.005758,0.9265758,0.5484226,0.7207713,0.2967611,0.9748648,0.8596801,0.5541078,0.5861297,0.5216892,1.047526,0.3447374,0.5138572,0.8796373,1.218626
20.122,-0.959788,0.2909651,-1.415906,-1.481297,0.02599072,-1.194739,-1.057763,0.2704722,-0.3017143,-0.9741676,-0.2206377,-1.47906,-1.219246,-1.541856,-1.217987,-1.577858,-1.209097,-1.225179,-1.84532,-0.9991621,0.9169977,0.6215414,1.449032,0.5097415,0.8008637,1.001409,0.9275955,0.5431619,0.7258401,0.2924895,0.9708509,0.8571663,0.5854743,0.5748987,0.5627401,1.046511,0.3517356,0.5064347,0.879629,1.212789
20.25,-1.041214,0.2226045,-1.458243,-1.576805,-0.03964734,-1.307748,-1.121411,0.2076819,-0.360582,-1.032144,-0.3559523,-1.5714,-1.370308,-1.670866,-1.31872,-1.772074,-1.284261,-1.312642,-2.005113,-1.078608,0.9162858,0.6175355,1.451021,0.5058548,0.7979854,1.002526,0.9331293,0.5385569,0.7233112,0.2950601,0.9655401,0.8528575,0.6011954,0.5697917,0.5277508,1.042232,0.3451142,0.4865424,0.8789845,1.219532
20.378,-1.102499,0.1357889,-1.532088,-1.685736,-0.1234198,-1.419497,-1.188024,0.1425595,-0.4214515,-1.105966,-0.5080101,-1.672279,-1.456895,-1.800276,-1.427118,-1.971987,-1.365257,-1.461086,-2.1567,-1.155637,0.9200306,0.6155756,1.449077,0.5037072,0.7968086,1.001672,0.9343811,0.5352887,0.7231842,0.3081312,0.9636043,0.8477023,0.5718576,0.5672652,0.5067514,1.038253,0.333602,0.4889958,0.8794241,1.225212
20.506,-1.149481,0.05074432,-1.613179,-1.807231,-0.2273946,-1.549928,-1.264395,0.06116452,-0.5123671,-1.152322,-0.6586336,-1.778706,-1.574392,-1.91293,-1.590678,-2.150938,-1.405769,-1.50512,-2.050069,-1.131029,0.893504,0.6070212,1.451727,0.4956947,0.7974518,1.000433,0.9369839,0.5384278,0.7296255,0.3005525,0.9644133,0.8517054,0.5661539,0.5558511,0.5454765,1.041169,0.3332683,0.5238888,0.8830535,1.209166
20.634,-1.114145,0.1152954,-1.520442,-1.657257,-0.06052434,-1.301207,-1.060412,0.2183054,-0.2984857,-1.075559,-0.1945164,-1.442193,-1.073445,-1.401419,-1.091934,-1.302173,-1.115678,-1.010908,-1.57979,-0.8696877,0.9038346,0.6116,1.441306,0.4980394,0.7981064,1.00196,0.9283803,0.5453337,0.7249824,0.2926913,0.9794329,0.8559324,0.5835125,0.5923863,0.5368806,1.054002,0.3587362,0.5282907,0.884948,1.20812
20.762,-0.9034718,0.2899987,-1.404155,-1.442816,0.07956988,-1.094562,-0.8909925,0.3396458,-0.1628425,-0.9729316,0.00327711,-1.274449,-0.9271341,-1.272019,-1.02425,-1.13387,-1.039466,-0.9469202,-1.53346,-0.8138047,0.9183351,0.6107904,1.438341,0.5027785,0.7937477,1.001333,0.9098395,0.545494,0.7217334,0.2920139,0.9737245,0.8522378,0.5883353,0.5845999,0.5904751,1.048684,0.3552907,0.5371873,0.8803662,1.203884
20.89,-0.8722242,0.3368202,-1.413016,-1.424584,0.09723099,-1.091889,-0.8995293,0.3350664,-0.1720756,-0.9574295,-0.02431046,-1.299045,-0.9556327,-1.303278,-0.9455732,-1.192804,-1.048145,-0.9908043,-1.575988,-0.840769,0.9192925,0.6150461,1.45148,0.4974053,0.7998706,0.99539,0.9005123,0.5518444,0.7136964,0.3103851,0.973169,0.8459809,0.58866,0.5830555,0.5479322,1.045374,0.356308,0.5194543,0.8799757,1.202937
21.018,-0.8903736,0.3267647,-1.440234,-1.445034,0.08421913,-1.128643,-0.9262022,0.3260393,-0.2046358,-0.9410372,-0.1043933,-1.356003,-1.028178,-1.398933,-1.036126,-1.340077,-1.096296,-1.113883,-1.705508,-0.8994597,0.9268264,0.6141881,1.448462,0.5007225,0.790952,0.9935108,0.8927311,0.540708,0.7160644,0.2764542,0.9672912,0.8378998,0.5688062,0.5851173,0.5295818,1.040992,0.3463463,0.5199243,0.8758383,1.198491
21.146,-0.9419854,0.2638208,-1.47887,-1.524301,0.0203858,-1.218547,-0.995531,0.2732168,-0.2777495,-1.001791,-0.239402,-1.456701,-1.184002,-1.509356,-1.153862,-1.52887,-1.17557,-1.21813,-1.856227,-0.9840345,0.9148316,0.6090789,1.445056,0.499188,0.7886326,0.9915207,0.8944814,0.538763,0.7238979,0.3045907,0.9625394,0.8349808,0.5820377,0.5699613,0.5315621,1.036286,0.3421549,0.4925585,0.874329,1.209017
21.274,-1.052758,0.1854968,-1.523653,-1.625529,-0.05362013,-1.329325,-1.063788,0.2079712,-0.327469,-1.028394,-0.3791112,-1.555328,-1.291067,-1.630075,-1.227074,-1.72774,-1.2481,-1.332473,-2.020798,-1.052084,0.9243343,0.6049268,1.439822,0.4968961,0.7849005,0.9928827,0.8967007,0.53846,0.7172332,0.2942874,0.958359,0.8359832,0.5681069,0.5640658,0.5078015,1.037477,0.3310418,0.4881617,0.8775111,1.206084
21.40199,-1.058761,0.1031163,-1.616112,-1.733287,-0.1377024,-1.445931,-1.128924,0.1299869,-0.4008243,-1.074098,-0.5269294,-1.662952,-1.371976,-1.754356,-1.44562,-1.926972,-1.335742,-1.41967,-2.163676,-1.125418,0.9119687,0.6015435,1.450373,0.4922157,0.7841762,0.9937795,0.8955476,0.5357349,0.7209224,0.2843989,0.9579806,0.8348306,0.5337731,0.5535563,0.5487624,1.038861,0.3252166,0.4739789,0.8738756,1.21058
21.52999,-1.206069,0.01734278,-1.699424,-1.846326,-0.2358252,-1.572792,-1.212055,0.05227095,-0.4750396,-1.150574,-0.6798393,-1.77095,-1.535521,-1.890813,-1.592475,-2.140114,-1.417488,-1.50741,-2.153829,-1.146995,0.9380844,0.5994148,1.446869,0.4883665,0.7841805,0.9975647,0.9008352,0.5330355,0.7200242,0.2851568,0.9560028,0.835732,0.5399038,0.5495106,0.5110676,1.033857,0.3217985,0.487709,0.8764721,1.194399
21.65799,-1.191109,0.04585449,-1.630413,-1.763589,-0.1068239,-1.377869,-1.051274,0.1775136,-0.3077775,-1.079042,-0.2619976,-1.467519,-1.12381,-1.399922,-1.179305,-1.313429,-1.11516,-1.029556,-1.629768,-0.8540174,0.9163942,0.5995822,1.440865,0.4839966,0.7908013,0.9940398,0.8946401,0.5419124,0.7219697,0.2797858,0.9694884,0.8421413,0.5858343,0.5839533,0.5403214,1.047209,0.3366694,0.5229086,0.8811318,1.185929
21.78599,-0.9564935,0.2507851,-1.502348,-1.541129,0.05311875,-1.135771,-0.8721164,0.3156364,-0.1417071,-0.9627625,-0.03082861,-1.263799,-0.9342914,-1.227271,-0.9552711,-1.087818,-1.011949,-0.9450767,-1.542873,-0.7801651,0.9392245,0.6037774,1.433663,0.4798597,0.787188,0.9905808,0.88259,0.5456186,0.711513,0.2777774,0.9694626,0.8368955,0.5864043,0.5813303,0.5347496,1.044752,0.3462028,0.5503828,0.8810096,1.187495
21.91399,-0.8614478,0.3148776,-1.474419,-1.511895,0.08390693,-1.120749,-0.8659635,0.3336506,-0.158113,-0.9188612,-0.0617255,-1.299443,-0.9729587,-1.266795,-0.9522269,-1.160614,-1.028285,-0.9630091,-1.580103,-0.8032605,0.9354042,0.606111,1.433786,0.4774026,0.7856002,0.9880128,0.8709302,0.5456335,0.7124978,0.2818692,0.9655613,0.8377407,0.5806847,0.5713484,0.5292512,1.037208,0.3342539,0.5070369,0.8714778,1.182747
22.04199,-0.898012,0.314994,-1.480962,-1.537403,0.07371071,-1.154843,-0.8942533,0.3189421,-0.1826159,-0.9314275,-0.1374675,-1.354905,-1.043793,-1.357517,-1.022734,-1.298804,-1.082225,-1.078274,-1.719005,-0.8712718,0.9430401,0.6094074,1.435065,0.4707136,0.7887544,0.9827518,0.8684732,0.546105,0.7048246,0.2916851,0.9614576,0.8331432,0.5733557,0.5719425,0.4675379,1.034616,0.3317115,0.5029868,0.8700721,1.18699
22.16999,-0.989088,0.2594028,-1.535551,-1.619798,0.009846771,-1.251572,-0.9739107,0.2711003,-0.2398146,-0.9480612,-0.2706702,-1.450474,-1.240499,-1.486709,-1.143402,-1.498244,-1.161987,-1.224331,-1.881622,-0.94653,0.933588,0.6048813,1.441929,0.4681911,0.7872974,0.9803309,0.8719701,0.5318615,0.6999207,0.2773883,0.9563655,0.8287457,0.5829358,0.5664626,0.5153338,1.03071,0.325262,0.5015079,0.8682477,1.187186
22.29799,-1.055038,0.1838014,-1.581833,-1.719455,-0.05535756,-1.367622,-1.041043,0.2015252,-0.3350726,-0.9991066,-0.4159509,-1.548194,-1.296731,-1.616183,-1.307687,-1.704604,-1.24886,-1.324776,-2.035041,-1.021904,0.9175481,0.6036233,1.440844,0.4589331,0.7813681,0.9797961,0.8739058,0.5364489,0.711601,0.2858769,0.9527804,0.827188,0.5470872,0.5557505,0.5182679,1.030003,0.3203256,0.4781902,0.8671718,1.190255
22.42599,-1.110216,0.1027588,-1.639557,-1.838934,-0.1440053,-1.490673,-1.108082,0.1382986,-0.4027499,-1.046992,-0.5684568,-1.673603,-1.469098,-1.754626,-1.464595,-1.9253,-1.340677,-1.497395,-2.198553,-1.10326,0.9096534,0.6005623,1.439136,0.4580747,0.7815919,0.9839329,0.8781761,0.5272284,0.7094094,0.283999,0.9480835,0.8323607,0.5585699,0.5470304,0.5362186,1.027864,0.3112067,0.5148692,0.8675001,1.193018
22.55399,-1.249233,0.02113519,-1.704291,-1.951851,-0.2359746,-1.608112,-1.182937,0.05311633,-0.4626876,-1.123079,-0.7276286,-1.779838,-1.615882,-1.887437,-1.581943,-2.153061,-1.4433,-1.565336,-2.357409,-1.170057,0.9159365,0.5976366,1.433349,0.4564106,0.7888737,0.9801133,0.8842911,0.5266754,0.7037844,0.2866172,0.9472234,0.8300106,0.5526947,0.5379295,0.4933572,1.024285,0.3091389,0.473064,0.8642843,1.198528
22.68199,-1.285959,-0.07791,-1.799546,-1.988939,-0.2494817,-1.606266,-1.175689,0.09124308,-0.4071752,-1.09828,-0.4822221,-1.605877,-1.30567,-1.527002,-1.147232,-1.519235,-1.207742,-1.131748,-1.779341,-0.8990437,0.8909065,0.5911594,1.433749,0.4523556,0.7850284,0.9843293,0.8852987,0.5298741,0.7003871,0.27529,0.9588625,0.8360089,0.5582289,0.5621308,0.4633543,1.03898,0.3203309,0.5073106,0.8762875,1.175853
22.80999,-0.9936077,0.1843486,-1.578787,-1.64666,-0.01694669,-1.235636,-0.8999622,0.2730712,-0.1861959,-0.9936435,-0.1233572,-1.305347,-0.9878992,-1.233457,-0.9748946,-1.093271,-1.016317,-0.9047088,-1.505907,-0.720698,0.9133224,0.6022114,1.431972,0.4738391,0.784992,0.9803431,0.8758918,0.543011,0.6984877,0.2763258,0.9643607,0.836621,0.5971068,0.569453,0.5321516,1.036712,0.3344696,0.537553,0.8697361,1.169948
22.93798,-0.8961123,0.3351283,-1.506066,-1.510811,0.09385937,-1.128015,-0.8208832,0.3556637,-0.1291316,-0.9153678,-0.06262914,-1.269175,-0.9532646,-1.231307,-0.8877768,-1.118728,-1.010692,-0.8963445,-1.552956,-0.7529533,0.9320055,0.6039665,1.441666,0.4766384,0.7808591,0.9783643,0.8574689,0.5376445,0.6938264,0.2876796,0.9580399,0.8333468,0.5767041,0.5606517,0.5045925,1.028647,0.3290784,0.5017918,0.8650078,1.168677
23.06598,-0.8812882,0.3424079,-1.462257,-1.515838,0.09297041,-1.144959,-0.8415938,0.3549684,-0.1486673,-0.8890569,-0.1116641,-1.302571,-0.9866624,-1.290403,-0.9437568,-1.217804,-1.04879,-0.9865925,-1.659002,-0.8065147,0.9115409,0.6066588,1.414633,0.4738768,0.7828106,0.9756895,0.853669,0.5414009,0.6943117,0.2881144,0.9580268,0.8276926,0.5638334,0.5620285,0.4834935,1.028678,0.3251827,0.4963146,0.8661224,1.167488
23.19398,-0.9485992,0.299271,-1.510265,-1.579819,0.0479628,-1.221082,-0.9183955,0.3210213,-0.2145724,-0.9043463,-0.2292061,-1.39873,-1.073415,-1.415852,-1.101142,-1.421479,-1.127972,-1.140438,-1.801639,-0.901431,0.9217067,0.6059845,1.429689,0.4701368,0.7790308,0.972793,0.8585494,0.5310965,0.6900197,0.277503,0.9522346,0.8235098,0.5420775,0.5522153,0.5134943,1.018455,0.3163542,0.5086707,0.85958,1.170324
23.32198,-1.005875,0.2225236,-1.601495,-1.678211,-0.03835853,-1.326219,-0.9848671,0.2562967,-0.2859886,-0.9489358,-0.3824843,-1.506458,-1.253085,-1.560536,-1.240173,-1.651113,-1.20698,-1.281734,-1.956199,-0.984565,0.9016621,0.6033249,1.437699,0.4705034,0.783182,0.9729861,0.8585756,0.5268572,0.6893018,0.2742317,0.949414,0.8202391,0.5299568,0.5468366,0.5048147,1.014565,0.3101967,0.5026107,0.8612127,1.171988
23.44998,-1.092998,0.1371652,-1.632865,-1.787429,-0.1229642,-1.446506,-1.064009,0.1801254,-0.3425319,-1.002117,-0.5398256,-1.608897,-1.428811,-1.707129,-1.332964,-1.89018,-1.300917,-1.415176,-2.11893,-1.069432,0.9086835,0.599178,1.429254,0.4672895,0.7801057,0.9772995,0.868084,0.5277336,0.6849777,0.2764337,0.9439585,0.8114387,0.5571203,0.5390652,0.5010321,1.008019,0.3109885,0.4807552,0.8632465,1.168321
23.57798,-1.172785,0.04322571,-1.705723,-1.90407,-0.2291559,-1.562184,-1.135339,0.1060729,-0.4237792,-1.066507,-0.6995451,-1.736472,-1.525409,-1.843834,-1.513778,-2.115311,-1.390129,-1.536617,-2.268018,-1.157867,0.8956929,0.5918019,1.420806,0.4646394,0.7798868,0.9772987,0.8707383,0.5226993,0.6930499,0.2830571,0.9422866,0.8185182,0.5395091,0.5341519,0.4887009,1.004177,0.3013782,0.4765151,0.8617727,1.171758
23.70598,-1.266787,-0.05321175,-1.779189,-2.022047,-0.3358353,-1.693421,-1.213201,0.02778856,-0.5062061,-1.1153,-0.8365148,-1.838226,-1.641716,-1.939442,-1.58842,-2.234412,-1.402028,-1.472598,-2.080665,-1.094445,0.9140736,0.585385,1.416925,0.4588722,0.7790419,0.9767029,0.8742087,0.5181535,0.6950101,0.2662437,0.9438344,0.823286,0.546089,0.5277789,0.488802,1.000429,0.3074379,0.5123159,0.8637081,1.153036
23.83398,-1.16986,0.04842251,-1.703646,-1.849126,-0.1581166,-1.399861,-1.003383,0.2014357,-0.2902849,-1.027069,-0.3340007,-1.484336,-1.163628,-1.394456,-1.101536,-1.354845,-1.122104,-1.047221,-1.619895,-0.8349965,0.9152704,0.5907123,1.428399,0.465483,0.7797821,0.975695,0.8690783,0.5332686,0.691588,0.2643602,0.9554247,0.8233529,0.5719588,0.5613776,0.5208231,1.01863,0.3235511,0.5289108,0.8666214,1.146315
23.96198,-0.9741062,0.222934,-1.573189,-1.622764,0.01243691,-1.185571,-0.8341072,0.3323129,-0.1504327,-0.9348303,-0.1250499,-1.309626,-0.9679176,-1.274649,-0.9158008,-1.187534,-1.038903,-0.969076,-1.563853,-0.7962937,0.9303462,0.5929158,1.421609,0.4686809,0.7751652,0.9777509,0.8561476,0.5336367,0.6919509,0.2661168,0.9524606,0.8222995,0.5723104,0.5615073,0.4818585,1.014919,0.3235482,0.5198513,0.8628432,1.14709
24.08998,-0.914359,0.2808578,-1.528086,-1.59093,0.03152865,-1.18173,-0.8464415,0.3288098,-0.1441289,-0.9063581,-0.1570069,-1.330532,-1.028099,-1.312827,-0.9501144,-1.256203,-1.048556,-0.9972992,-1.609812,-0.8224304,0.9262773,0.5935197,1.40946,0.4678942,0.7789098,0.9670576,0.8514832,0.5336268,0.6829747,0.2693586,0.9539486,0.8179924,0.5737517,0.5567748,0.5147113,1.009833,0.3207017,0.4957512,0.859028,1.146797
24.21798,-0.9188276,0.2743194,-1.548602,-1.61068,0.009173323,-1.22949,-0.8856021,0.3207254,-0.190448,-0.9225327,-0.238448,-1.395376,-1.129659,-1.41189,-1.057412,-1.413565,-1.112515,-1.12844,-1.752858,-0.8996029,0.9066753,0.5956192,1.418697,0.4683188,0.7795542,0.9653957,0.8491495,0.528396,0.6913795,0.2765684,0.9496983,0.8118216,0.5712807,0.5530522,0.5140609,1.006967,0.3212757,0.5085061,0.8598391,1.149469
24.34598,-0.99128,0.2112244,-1.593209,-1.694553,-0.05247498,-1.326375,-0.9542977,0.2687541,-0.2535516,-0.9548872,-0.3746684,-1.489292,-1.255421,-1.543215,-1.168868,-1.625983,-1.198005,-1.25625,-1.910887,-0.9762362,0.9171588,0.5905741,1.418948,0.467751,0.7748318,0.9643217,0.8501319,0.5275487,0.6923661,0.2760869,0.9472804,0.8116641,0.5675642,0.5468043,0.5087715,1.004904,0.3195677,0.4990948,0.8585784,1.149519
24.47397,-1.090233,0.1322528,-1.631621,-1.791412,-0.1281931,-1.428085,-1.018442,0.2048494,-0.3164813,-1.002853,-0.5130591,-1.584671,-1.392125,-1.674096,-1.279046,-1.834492,-1.278635,-1.398979,-2.060299,-1.050614,0.9296169,0.5901819,1.42303,0.4661489,0.7707542,0.9608467,0.8534049,0.5250126,0.689037,0.2671958,0.9398038,0.8100934,0.567674,0.5416076,0.5102845,1.007178,0.3115363,0.4907171,0.8557374,1.147945
24.60197,-1.131315,0.05631667,-1.692953,-1.88745,-0.2146376,-1.551204,-1.083317,0.1391564,-0.3847182,-1.058963,-0.662312,-1.691791,-1.483258,-1.81195,-1.464192,-2.046434,-1.36861,-1.488168,-2.204772,-1.137144,0.9089183,0.5841959,1.41852,0.462546,0.7719403,0.96395,0.854167,0.5180223,0.6898754,0.2744365,0.9394358,0.8127857,0.5417112,0.5351081,0.50123,0.999,0.3067229,0.4743599,0.8580831,1.149086
24.72997,-1.244999,-0.03242071,-1.742383,-2.001094,-0.3037444,-1.667002,-1.165818,0.05885677,-0.4492677,-1.130305,-0.8295769,-1.819886,-1.703116,-1.964443,-1.552592,-2.289946,-1.470949,-1.616755,-2.325005,-1.223818,0.9329168,0.5834243,1.411749,0.4653874,0.7715924,0.9603685,0.8628985,0.514664,0.6911451,0.2783773,0.9369819,0.8163967,0.5640046,0.5269804,0.455904,0.9941639,0.3008144,0.4673813,0.860536,1.147664
24.85797,-1.360269,-0.0813271,-1.764545,-1.993505,-0.244939,-1.575973,-1.090055,0.1406709,-0.3441585,-1.101837,-0.4948889,-1.598454,-1.299013,-1.535613,-1.233618,-1.567281,-1.211936,-1.175314,-1.757082,-0.9454432,0.9232132,0.5815315,1.421563,0.4612834,0.7772329,0.959998,0.8603936,0.5173187,0.692275,0.2682196,0.951995,0.8222204,0.5502273,0.559741,0.4965459,1.015841,0.3126355,0.5121734,0.8652633,1.133414
24.98597,-1.012811,0.1478592,-1.616771,-1.720076,-0.07176969,-1.290503,-0.8843323,0.2686105,-0.1844046,-1.004602,-0.2380251,-1.3779,-1.035558,-1.342679,-1.045463,-1.292611,-1.104993,-0.9813635,-1.643374,-0.8557749,0.9241594,0.5865861,1.415887,0.4697867,0.7734498,0.9581208,0.8519737,0.5258781,0.6840487,0.2653897,0.9516665,0.8173843,0.5601448,0.5596339,0.5003749,1.016492,0.3225439,0.5085851,0.8600823,1.137664
25.11397,-1.011513,0.2235315,-1.555286,-1.668729,-0.04043334,-1.264853,-0.872282,0.2960278,-0.1814529,-0.9525348,-0.2583379,-1.40817,-1.10442,-1.385351,-1.07671,-1.375035,-1.126587,-1.058272,-1.705242,-0.8841171,0.9681531,0.5916607,1.406881,0.4669594,0.7789696,0.9555298,0.8416277,0.5198677,0.6804639,0.2682261,0.9495801,0.8221496,0.5606103,0.549509,0.4869848,1.010659,0.311842,0.5025442,0.8603933,1.136107
25.24197,-0.9760945,0.2208506,-1.577559,-1.685063,-0.04277121,-1.293074,-0.8991901,0.2875185,-0.1971671,-0.9616022,-0.3264839,-1.451949,-1.189963,-1.474603,-1.161837,-1.520333,-1.177295,-1.169847,-1.836674,-0.949629,0.9311727,0.5926168,1.412963,0.4644685,0.7764834,0.9515524,0.8414435,0.5189806,0.6741652,0.2681994,0.9465026,0.8169808,0.5737953,0.5500652,0.5149769,1.012319,0.3058302,0.4925437,0.8578654,1.139516
25.36997,-1.030566,0.1623247,-1.624688,-1.765315,-0.1174615,-1.382878,-0.9767162,0.2231009,-0.2731009,-1.00325,-0.4577988,-1.553879,-1.325693,-1.613783,-1.291447,-1.745857,-1.270165,-1.320945,-1.990134,-1.042224,0.9388813,0.5866211,1.4136,0.4659348,0.7723351,0.9519793,0.8453229,0.5203756,0.6865833,0.2626962,0.9443038,0.8171126,0.5711637,0.544331,0.5140303,1.005473,0.3061201,0.5089352,0.8589787,1.139221
25.49797,-1.096136,0.07536346,-1.678663,-1.86648,-0.1946917,-1.498138,-1.042389,0.169254,-0.3224863,-1.037491,-0.6014986,-1.658778,-1.482998,-1.743446,-1.389013,-1.966584,-1.359482,-1.471238,-2.147284,-1.119933,0.9264225,0.5862024,1.416411,0.4642586,0.7702473,0.953023,0.8480529,0.5106426,0.6772932,0.2616903,0.9364362,0.8159846,0.5654807,0.5340227,0.4911004,1.001988,0.3033476,0.4995097,0.856904,1.141614
25.62597,-1.220982,-0.00595052,-1.727524,-1.980368,-0.2831622,-1.61946,-1.112978,0.08928893,-0.4077784,-1.092517,-0.7628416,-1.758734,-1.599829,-1.890503,-1.498339,-2.205621,-1.456137,-1.595133,-2.30498,-1.204667,0.9392067,0.5824088,1.411718,0.4628335,0.7732989,0.9540476,0.8516348,0.5113936,0.6863201,0.2589964,0.9363497,0.8095329,0.5546274,0.5299774,0.44782,1.004118,0.2975819,0.4850782,0.8605826,1.147538
25.75397,-1.284092,-0.08613209,-1.824111,-2.087675,-0.3683045,-1.738518,-1.184603,0.01332346,-0.4824081,-1.164102,-0.9174385,-1.877292,-1.692854,-2.027429,-1.794838,-2.425812,-1.55386,-1.691264,-2.480416,-1.29742,0.9237357,0.579626,1.414059,0.4552122,0.7767084,0.9549747,0.8581305,0.5051292,0.6831285,0.2601143,0.937194,0.8146882,0.5353543,0.5247254,0.4968926,1.000526,0.2810074,0.4585857,0.8623525,1.158327
25.88197,-1.362137,-0.1827234,-1.919677,-2.185882,-0.4457503,-1.821337,-1.237026,-0.007883909,-0.4905579,-1.191677,-0.801763,-1.814838,-1.598302,-1.778571,-1.508942,-1.96865,-1.378548,-1.328353,-1.984546,-1.081748,0.9248039,0.571458,1.410991,0.4542797,0.7796037,0.959154,0.8631986,0.5064477,0.6893514,0.2568207,0.9461204,0.8231202,0.5652227,0.5409,0.4984952,1.014802,0.2938797,0.4965484,0.8660036,1.140869
26.00997,-1.121411,0.03614553,-1.705167,-1.852978,-0.1809189,-1.422135,-0.9540817,0.2016275,-0.2420964,-1.072458,-0.3534115,-1.485987,-1.131442,-1.41338,-1.124891,-1.392037,-1.179889,-1.075972,-1.674234,-0.8895919,0.9356089,0.5853426,1.407124,0.4590826,0.7759817,0.9548785,0.8517089,0.5165724,0.6826996,0.2561306,0.951188,0.8212537,0.5655215,0.5592573,0.4775769,1.019861,0.3166703,0.5239149,0.8664348,1.138588
26.13796,-0.9579152,0.1853372,-1.617707,-1.7021,-0.06855764,-1.283081,-0.8494597,0.2785974,-0.160178,-0.9936982,-0.2620963,-1.399442,-1.096897,-1.402712,-1.036839,-1.388535,-1.168378,-1.11497,-1.711933,-0.8991873,0.9231653,0.5869555,1.411735,0.463418,0.7789074,0.9557052,0.8412383,0.5224705,0.6730763,0.2617205,0.9456759,0.8128327,0.5631183,0.5529032,0.4711008,1.016304,0.3174984,0.5321917,0.8590821,1.137625
26.26596,-1.015911,0.1949685,-1.606316,-1.714203,-0.05384434,-1.303602,-0.8735406,0.2727256,-0.1850784,-0.9575381,-0.3001557,-1.443389,-1.173603,-1.449072,-1.190124,-1.480439,-1.188387,-1.148056,-1.804253,-0.9525108,0.9611526,0.5938902,1.41034,0.4611714,0.7796853,0.9488956,0.8340276,0.5235453,0.6744598,0.2608843,0.9445862,0.8147929,0.5725672,0.5500031,0.5352585,1.014888,0.3006425,0.5044633,0.8582179,1.14298
26.39396,-1.027707,0.1673957,-1.627578,-1.765569,-0.09764055,-1.372845,-0.9384121,0.2386224,-0.2348105,-0.9924354,-0.4180588,-1.536405,-1.304783,-1.573599,-1.24775,-1.686728,-1.267215,-1.349298,-1.965487,-1.042446,0.9403571,0.5931249,1.405636,0.4593759,0.7763965,0.9456583,0.8381358,0.5191654,0.6710781,0.2545943,0.9429166,0.8122396,0.573537,0.5424376,0.4674574,1.011169,0.2975917,0.5209764,0.8597596,1.149427
26.52196,-1.132254,0.09092709,-1.680858,-1.864256,-0.1725964,-1.491166,-1.009617,0.1804911,-0.3051172,-1.029275,-0.5630122,-1.628911,-1.37299,-1.711356,-1.365623,-1.915017,-1.361689,-1.426723,-2.127985,-1.117747,0.9432607,0.5901521,1.406944,0.4606357,0.7786641,0.9517452,0.8381801,0.5141015,0.679098,0.2557689,0.9384979,0.8092976,0.5420812,0.5352959,0.4567533,1.013495,0.3026949,0.489692,0.8606327,1.151968
26.64996,-1.285245,0.0163223,-1.730062,-1.967927,-0.2558927,-1.607783,-1.075207,0.1123514,-0.3838548,-1.078068,-0.7270253,-1.750218,-1.580862,-1.856103,-1.556344,-2.153934,-1.449131,-1.565647,-2.288164,-1.20021,0.9639052,0.5887179,1.405858,0.457486,0.7779187,0.9517635,0.8416979,0.5096561,0.6778625,0.2590468,0.9381909,0.8139956,0.5628548,0.5266283,0.4814126,1.011404,0.2929226,0.4903601,0.8591325,1.155397
26.77796,-1.318325,-0.07555927,-1.808533,-2.076001,-0.3481221,-1.725399,-1.14631,0.04079716,-0.4476695,-1.132607,-0.8852099,-1.842888,-1.692558,-2.001612,-1.690751,-2.366536,-1.548789,-1.632526,-2.442412,-1.292982,0.9548976,0.5854124,1.401985,0.4523816,0.7809435,0.951075,0.8451337,0.506228,0.6788728,0.2547636,0.9384766,0.8068545,0.5402762,0.5255162,0.4667458,1.004497,0.2881282,0.4494538,0.8606002,1.160666
26.90596,-1.401734,-0.1633125,-1.905507,-2.194255,-0.4488208,-1.849975,-1.230535,-0.03902544,-0.5200864,-1.202489,-1.043219,-1.969277,-1.820422,-2.133321,-1.854169,-2.600554,-1.615438,-1.758078,-2.387126,-1.305475,0.9369362,0.5825328,1.416222,0.4538091,0.7758096,0.9512163,0.8512613,0.5023989,0.6759297,0.2532815,0.9380967,0.8164506,0.541173,0.5146073,0.4734567,1.00668,0.2828279,0.49802,0.8622511,1.14324
27.03396,-1.356828,-0.1199833,-1.811616,-2.074724,-0.2893613,-1.627684,-1.063043,0.1016485,-0.3536563,-1.14103,-0.5620568,-1.654816,-1.325668,-1.582057,-1.305607,-1.649453,-1.2868,-1.193349,-1.82448,-1.001894,0.9318109,0.5862164,1.409287,0.4550233,0.7883449,0.9547137,0.8508412,0.5141643,0.6811728,0.2549559,0.9509264,0.8244925,0.5636542,0.5566774,0.4879719,1.023882,0.3050726,0.5098215,0.872286,1.139554
27.16196,-1.110524,0.09215232,-1.68343,-1.797252,-0.1229065,-1.349388,-0.8661894,0.2481472,-0.1890557,-1.016708,-0.2949689,-1.432142,-1.089322,-1.391224,-1.138169,-1.390814,-1.175837,-1.051511,-1.72777,-0.9269145,0.9543974,0.5898604,1.403009,0.4587157,0.7847217,0.9548638,0.8340509,0.5241351,0.6792147,0.2473681,0.9464888,0.8143236,0.5720403,0.5552952,0.5137122,1.025096,0.3186744,0.5077342,0.8670802,1.146618
27.28996,-1.03224,0.1661982,-1.640438,-1.74818,-0.07949997,-1.321932,-0.8593373,0.2813575,-0.1678434,-0.977705,-0.3177447,-1.455467,-1.148702,-1.445294,-1.103259,-1.48177,-1.182869,-1.193551,-1.783281,-0.9549521,0.9473684,0.5956503,1.396962,0.4545291,0.781031,0.9472432,0.8250176,0.5210089,0.6619695,0.2677535,0.9422473,0.805658,0.5643894,0.5477958,0.4918956,1.018174,0.3022605,0.5387828,0.8631277,1.145235
27.41796,-1.070709,0.1552443,-1.656642,-1.773635,-0.09354717,-1.367605,-0.8910769,0.263078,-0.2022699,-0.9720737,-0.3923844,-1.506965,-1.210207,-1.540041,-1.245599,-1.639874,-1.242613,-1.269634,-1.915893,-1.02833,0.9589055,0.5950968,1.394325,0.4573291,0.7813169,0.9505087,0.8197946,0.5226912,0.6644839,0.2634641,0.9385531,0.7988647,0.5517631,0.5442889,0.5216656,1.020437,0.3019285,0.516429,0.8603827,1.152916
27.54596,-1.148331,0.1078083,-1.692725,-1.863265,-0.1532552,-1.454525,-0.9608065,0.2192646,-0.2658802,-1.005314,-0.5425496,-1.623461,-1.391046,-1.681282,-1.359185,-1.875255,-1.318473,-1.404251,-2.082371,-1.114193,0.9582976,0.5954769,1.399251,0.4552214,0.7849469,0.9447315,0.824084,0.5154313,0.6641401,0.2698597,0.9360664,0.8046114,0.5676941,0.5364406,0.5299572,1.016506,0.3037918,0.5013495,0.8666539,1.155276
27.67395,-1.215152,0.03156241,-1.734057,-1.959347,-0.2302091,-1.57242,-1.028679,0.1550336,-0.3432402,-1.04667,-0.701461,-1.719311,-1.496388,-1.82342,-1.478059,-2.098046,-1.392263,-1.551728,-2.225704,-1.196622,0.9545928,0.594079,1.396411,0.45275,0.7856666,0.9428972,0.8268451,0.5109247,0.6684689,0.2704895,0.9350325,0.796341,0.555647,0.5249393,0.5140137,1.008384,0.2950648,0.5104267,0.8625196,1.154972
27.80195,-1.32418,-0.04804723,-1.804984,-2.063404,-0.320584,-1.703355,-1.10275,0.07809113,-0.4128729,-1.101465,-0.849472,-1.827013,-1.643128,-1.961339,-1.586907,-2.335223,-1.481471,-1.622431,-2.385211,-1.28653,0.9624459,0.5895767,1.402181,0.4510359,0.7843573,0.9472818,0.8327162,0.5103064,0.6718601,0.2494856,0.9312536,0.7928613,0.5462486,0.5184987,0.4991288,1.009549,0.2888395,0.4783718,0.8632067,1.161072
27.92995,-1.407021,-0.1446331,-1.878137,-2.171509,-0.4119129,-1.816936,-1.172045,-0.003133173,-0.4812227,-1.183715,-1.005218,-1.928463,-1.768388,-2.092636,-1.765585,-2.55991,-1.58893,-1.747209,-2.552514,-1.368804,0.947184,0.58368,1.399118,0.4498785,0.7844038,0.947167,0.8364539,0.5074246,0.6736817,0.2758017,0.9324268,0.7932824,0.5301437,0.5124587,0.5069444,1.010679,0.2889771,0.4683628,0.8657454,1.166084
28.05795,-1.491979,-0.2398316,-1.977888,-2.28904,-0.5162776,-1.931372,-1.249201,-0.06048991,-0.5176878,-1.21414,-1.024062,-1.950689,-1.796601,-1.997814,-1.721102,-2.373372,-1.469013,-1.531364,-2.171649,-1.223468,0.9748476,0.5782194,1.406049,0.4486338,0.7862337,0.9470642,0.8333452,0.504214,0.6707034,0.2529946,0.9428936,0.8024007,0.5730909,0.5233552,0.5175989,1.015696,0.291248,0.525816,0.8691965,1.147903
28.18595,-1.287695,-0.06614905,-1.798151,-2.014626,-0.2720021,-1.585703,-0.9972147,0.1343469,-0.2831222,-1.110098,-0.5357582,-1.615068,-1.258883,-1.531625,-1.222103,-1.627779,-1.25577,-1.202922,-1.843981,-1.029632,0.9443561,0.5872085,1.393806,0.4565304,0.7880065,0.9518062,0.8258812,0.520776,0.6708317,0.2539724,0.9461259,0.802466,0.5486487,0.5534733,0.4766231,1.026276,0.3113915,0.5223131,0.8683069,1.15022
28.31395,-1.104438,0.0778405,-1.7079,-1.841371,-0.1588815,-1.417966,-0.8825496,0.213342,-0.1988008,-1.036164,-0.4328683,-1.526373,-1.229747,-1.510543,-1.196449,-1.593331,-1.230956,-1.165778,-1.876242,-1.036161,0.9474803,0.5883868,1.389444,0.4582287,0.7877808,0.9445171,0.8101608,0.5262866,0.6675439,0.2638792,0.9399244,0.7955296,0.5517046,0.5523492,0.5394104,1.020224,0.3095275,0.4937716,0.8686745,1.15151
28.44195,-1.136858,0.09220618,-1.705465,-1.849877,-0.1535468,-1.441393,-0.9139028,0.2247139,-0.207527,-1.012699,-0.4592467,-1.54729,-1.27284,-1.530147,-1.17414,-1.655236,-1.240175,-1.243211,-1.92198,-1.05872,0.9614291,0.5939356,1.393268,0.4540026,0.7888387,0.9456097,0.8061031,0.5171087,0.6635453,0.2646947,0.9386507,0.7908885,0.5716808,0.5421994,0.5204241,1.022175,0.3034363,0.5043121,0.8571011,1.152569
28.56995,-1.166391,0.07429797,-1.724758,-1.892405,-0.1835535,-1.503612,-0.9560032,0.1840259,-0.2591857,-1.021663,-0.5662996,-1.610187,-1.370026,-1.64297,-1.315813,-1.833282,-1.310389,-1.393016,-2.085209,-1.125072,0.9638879,0.5939535,1.393641,0.4554646,0.788691,0.9428843,0.8036482,0.5233198,0.6658257,0.2675465,0.9353174,0.7796987,0.5389783,0.5368541,0.52811,1.015967,0.3072184,0.496657,0.8650709,1.153232
28.69795,-1.231851,0.002279644,-1.760477,-1.979303,-0.2607369,-1.604852,-1.030722,0.1334384,-0.3103451,-1.073265,-0.706756,-1.711533,-1.520904,-1.773681,-1.444418,-2.052566,-1.380938,-1.517195,-2.226894,-1.20397,0.967949,0.5907449,1.392628,0.4542012,0.7916488,0.9416423,0.8092341,0.521118,0.6636507,0.2803058,0.9325628,0.7850978,0.5485967,0.5268139,0.506286,1.013381,0.3044188,0.4998322,0.8645981,1.15802
28.82595,-1.30571,-0.07471666,-1.829119,-2.08225,-0.3297814,-1.709612,-1.090882,0.07756735,-0.3788476,-1.102951,-0.8531282,-1.823915,-1.638586,-1.906674,-1.562029,-2.275847,-1.470018,-1.662509,-2.386247,-1.281239,0.9585437,0.5864347,1.401499,0.4510648,0.7846183,0.9380944,0.8084924,0.5109295,0.6688006,0.2647877,0.9302317,0.7876183,0.5419223,0.5224214,0.5020604,1.017329,0.3024155,0.5067018,0.8646117,1.163842
28.95395,-1.391277,-0.1547645,-1.884804,-2.183509,-0.4229766,-1.835686,-1.156019,-0.005654966,-0.4420417,-1.172045,-0.9955965,-1.897797,-1.704233,-2.033742,-1.749947,-2.485344,-1.549078,-1.741671,-2.536822,-1.364816,0.9610645,0.5823406,1.380996,0.4496625,0.787312,0.9455312,0.8090447,0.5127973,0.6684212,0.2745013,0.9294596,0.7774853,0.5188377,0.5166569,0.5155171,1.017153,0.2867005,0.4966114,0.8635183,1.169615
29.08195,-1.437818,-0.2416935,-1.974355,-2.307145,-0.5166099,-1.95388,-1.235555,-0.08385904,-0.5231342,-1.219253,-1.143898,-2.017166,-1.87986,-2.159731,-1.856071,-2.665803,-1.605778,-1.749875,-2.446701,-1.332799,0.952957,0.5804428,1.395512,0.4489682,0.7850394,0.9450828,0.815367,0.5086925,0.6702054,0.2586028,0.9339656,0.7885981,0.534111,0.5107699,0.4856357,1.014667,0.290167,0.4869129,0.8698028,1.153462
29.20994,-1.408771,-0.1712279,-1.891849,-2.179983,-0.3471038,-1.708012,-1.061479,0.06233923,-0.3512122,-1.155592,-0.668156,-1.695405,-1.411117,-1.606947,-1.376582,-1.741267,-1.31856,-1.272195,-1.958839,-1.079438,0.971849,0.5854445,1.402836,0.4398158,0.7904984,0.94482,0.8088513,0.5225345,0.6720217,0.2629842,0.9458354,0.7938146,0.5572321,0.5504357,0.5291211,1.031619,0.3135971,0.5096406,0.8743932,1.153969
29.33794,-1.191694,0.007447228,-1.77463,-1.950859,-0.2114032,-1.480756,-0.9162174,0.1910285,-0.2133831,-1.046925,-0.462128,-1.530364,-1.221836,-1.472153,-1.232697,-1.559819,-1.231442,-1.228307,-1.900667,-1.029037,0.9668208,0.5864103,1.38483,0.4405449,0.7892545,0.9467751,0.7956299,0.523272,0.6679387,0.2624748,0.9401736,0.7925835,0.5439895,0.5499154,0.5421502,1.029246,0.3131532,0.512714,0.8687295,1.152964
29.46594,-1.185838,0.05422013,-1.768993,-1.954155,-0.183283,-1.472513,-0.925076,0.1948539,-0.2141622,-0.9923412,-0.5008739,-1.54723,-1.259125,-1.525939,-1.250846,-1.630762,-1.252132,-1.250011,-1.934854,-1.039418,0.9817398,0.5908406,1.381958,0.4345958,0.7933128,0.9435746,0.7877164,0.523099,0.6580212,0.2585754,0.9399387,0.7815108,0.5355258,0.5460573,0.5051199,1.023661,0.3196283,0.5050743,0.8636619,1.148547
29.59394,-1.167574,0.05113687,-1.772691,-1.987686,-0.2026219,-1.513945,-0.9626612,0.1753789,-0.2565511,-1.00797,-0.5745487,-1.598966,-1.357239,-1.61127,-1.403567,-1.788908,-1.305696,-1.400492,-2.070179,-1.106261,0.959978,0.5925537,1.380035,0.4288252,0.7923244,0.9401327,0.7854375,0.5245502,0.6663259,0.2573898,0.9330664,0.7811686,0.5417861,0.5379694,0.5490169,1.022261,0.3047737,0.5263948,0.8623375,1.157226
29.72194,-1.231283,-0.008645607,-1.839394,-2.07781,-0.2624387,-1.61758,-1.027783,0.1209167,-0.3127378,-1.051065,-0.7153128,-1.691346,-1.518119,-1.748173,-1.446552,-2.010475,-1.372124,-1.463499,-2.225713,-1.18643,0.9521678,0.5937082,1.397613,0.4221712,0.7926698,0.9436866,0.7896236,0.5168964,0.6600432,0.2672703,0.9294043,0.7846898,0.560334,0.5347868,0.5081581,1.024634,0.2926395,0.4930099,0.8648802,1.160695
29.84994,-1.30906,-0.07691757,-1.877411,-2.19075,-0.343789,-1.725424,-1.089509,0.06716207,-0.3773259,-1.080611,-0.8696448,-1.778199,-1.578812,-1.879949,-1.622505,-2.218815,-1.470109,-1.584662,-2.386376,-1.253576,0.9365125,0.5899804,1.385997,0.4179963,0.8022118,0.9401167,0.7941308,0.5132081,0.6684897,0.269071,0.9296297,0.784925,0.5256773,0.5239769,0.5250306,1.02178,0.3013802,0.4993142,0.8669916,1.160131
29.97794,-1.435979,-0.1518199,-1.964425,-2.309427,-0.4157336,-1.848851,-1.155888,-0.002180137,-0.4559869,-1.112722,-1.019526,-1.875917,-1.764276,-2.014071,-1.741394,-2.427902,-1.547076,-1.696764,-2.528473,-1.326449,0.9601013,0.5905986,1.390891,0.4057753,0.7997513,0.9417219,0.7979669,0.5106691,0.6727568,0.2623494,0.9267421,0.7835122,0.5502558,0.5204423,0.5149978,1.023652,0.2902373,0.4832609,0.8623595,1.166648
30.10594,-1.521558,-0.2325095,-2.01436,-2.439096,-0.5056254,-1.962089,-1.223029,-0.0843872,-0.5183187,-1.182971,-1.169471,-1.985749,-1.885028,-2.158772,-1.961186,-2.662305,-1.636077,-1.847473,-2.578125,-1.384002,0.9579697,0.5877991,1.368125,0.4025316,0.7974418,0.9412149,0.8001892,0.5114678,0.6715447,0.2618904,0.9264294,0.788439,0.5368297,0.5161615,0.5256304,1.023648,0.2866792,0.5049152,0.8647055,1.157947
30.23394,-1.547567,-0.2462156,-1.9739,-2.383438,-0.3848889,-1.810446,-1.102152,0.03593556,-0.3747754,-1.145816,-0.7443265,-1.704389,-1.422043,-1.647615,-1.447402,-1.751164,-1.325938,-1.26801,-1.955225,-1.05487,0.9622098,0.5866978,1.381742,0.4009717,0.7989004,0.9412966,0.7960278,0.5201498,0.6717205,0.2716378,0.9403758,0.7929936,0.5640557,0.5491426,0.5235675,1.034347,0.3088775,0.5111706,0.8707114,1.150554
30.36194,-1.232555,0.01143984,-1.801595,-2.07638,-0.1875447,-1.481161,-0.8894098,0.1991341,-0.2081469,-1.01361,-0.4197564,-1.447061,-1.159356,-1.409367,-1.216558,-1.407922,-1.171816,-1.131231,-1.784107,-0.9152462,0.977537,0.5921695,1.380471,0.4063812,0.7976512,0.939176,0.7857366,0.5275398,0.6705095,0.271669,0.9415478,0.7898656,0.5762856,0.5510635,0.565859,1.034298,0.3187577,0.5534472,0.8623167,1.148996
30.48994,-1.148493,0.1253146,-1.734731,-1.993592,-0.1116252,-1.416388,-0.8571018,0.2478571,-0.1752004,-0.9428211,-0.4010141,-1.437736,-1.13737,-1.438745,-1.167787,-1.457369,-1.175734,-1.166107,-1.82305,-0.9468501,0.9913262,0.6001364,1.369813,0.3990933,0.801005,0.9345663,0.7756459,0.5300433,0.662855,0.2675386,0.9363595,0.7880076,0.5476487,0.5449406,0.5478368,1.030615,0.316146,0.54035,0.8574922,1.151975
30.61794,-1.082826,0.1367693,-1.735118,-2.009299,-0.1021075,-1.435004,-0.868328,0.2521955,-0.2014083,-0.9232775,-0.4466127,-1.468469,-1.251342,-1.510351,-1.19584,-1.566042,-1.208663,-1.227984,-1.93794,-0.9866356,0.9484552,0.6031555,1.370177,0.3979103,0.7990834,0.9331338,0.7686821,0.5326588,0.6730561,0.2803447,0.9346064,0.7853298,0.5905268,0.5445294,0.5311807,1.026579,0.3073162,0.5190794,0.8543126,1.1492
30.74594,-1.149363,0.09883239,-1.758682,-2.073085,-0.1601238,-1.522475,-0.9362347,0.2009847,-0.2536429,-0.9487801,-0.5769418,-1.540143,-1.340422,-1.634695,-1.332467,-1.772348,-1.28617,-1.347929,-2.07779,-1.069523,0.9363764,0.6001186,1.362281,0.3962457,0.8007853,0.9348119,0.7750918,0.5317644,0.6702057,0.2733621,0.9329893,0.7816929,0.5560117,0.5405241,0.5259329,1.028062,0.3078407,0.4973992,0.8537564,1.15335
30.87393,-1.269845,0.0250654,-1.835226,-2.16424,-0.2280963,-1.618259,-1.002201,0.1546371,-0.3099813,-0.9876016,-0.7175698,-1.627155,-1.443823,-1.753844,-1.465631,-1.985897,-1.358741,-1.459696,-2.23004,-1.143184,0.9625129,0.599067,1.375623,0.3949993,0.8003578,0.9368332,0.7823858,0.5240326,0.6691614,0.2707609,0.9319264,0.783118,0.5403258,0.5324841,0.5398644,1.027375,0.3090008,0.4938785,0.8557593,1.151695
31.00193,-1.307302,-0.05297314,-1.889609,-2.271468,-0.3123121,-1.711499,-1.052647,0.08692264,-0.3875049,-1.045752,-0.8648005,-1.736151,-1.58278,-1.896345,-1.61765,-2.205993,-1.451336,-1.582609,-2.379407,-1.218138,0.9524714,0.5947552,1.37791,0.3935615,0.7990586,0.9329901,0.7781746,0.5216022,0.6781182,0.2839479,0.9278461,0.7859026,0.546555,0.5300231,0.5342602,1.022691,0.3084373,0.5074098,0.859605,1.148036
31.12993,-1.447766,-0.1346801,-1.95694,-2.37672,-0.3995252,-1.828546,-1.118227,0.01037359,-0.4533326,-1.077497,-1.018929,-1.835134,-1.751078,-2.031,-1.742857,-2.436213,-1.524247,-1.728943,-2.53824,-1.295512,0.9697813,0.5917844,1.374994,0.3922297,0.7986613,0.934351,0.7846287,0.5201928,0.6778998,0.2651194,0.9262781,0.7810763,0.5437604,0.521798,0.5324657,1.018466,0.2916012,0.4932524,0.8588036,1.151885
31.25793,-1.517274,-0.2233046,-1.994947,-2.415099,-0.4009005,-1.828228,-1.111926,0.04369121,-0.3980073,-1.090825,-0.7841028,-1.680896,-1.442396,-1.677212,-1.416996,-1.789378,-1.289778,-1.262054,-1.95453,-1.019084,0.9629151,0.5853581,1.369527,0.3830878,0.7992006,0.9351081,0.786037,0.5303104,0.6747264,0.2752845,0.9378834,0.7892317,0.5537025,0.5475996,0.5671379,1.03454,0.3122548,0.5114245,0.8667989,1.133178
31.38593,-1.240943,0.04006176,-1.76039,-2.060032,-0.1456884,-1.449436,-0.8508267,0.2357104,-0.183882,-0.9624546,-0.3745936,-1.381213,-1.067736,-1.382439,-1.124863,-1.334092,-1.097445,-1.046308,-1.670712,-0.8486848,0.9826594,0.5926998,1.363437,0.4080123,0.7909087,0.9358664,0.7766963,0.5342294,0.674825,0.2732174,0.9390252,0.7854109,0.5496041,0.5584176,0.5457328,1.032174,0.3298922,0.5497165,0.859987,1.124576
31.51393,-1.031713,0.19327,-1.651503,-1.925108,-0.03871018,-1.327781,-0.7675642,0.3022151,-0.1335112,-0.8848822,-0.3141239,-1.331288,-1.064306,-1.376542,-1.071302,-1.340633,-1.081046,-1.084434,-1.698066,-0.8626513,0.9521276,0.5964261,1.36023,0.4071262,0.7954026,0.928653,0.7613387,0.5403401,0.6717185,0.2870109,0.9348078,0.7849923,0.5723262,0.5542952,0.5556502,1.025564,0.3248066,0.5544983,0.8538428,1.119349
31.64193,-1.064782,0.212899,-1.620054,-1.924726,-0.02056406,-1.333943,-0.7791517,0.3155445,-0.1397799,-0.8775393,-0.3409031,-1.349839,-1.111851,-1.424428,-1.068624,-1.423482,-1.1043,-1.129313,-1.787305,-0.8991907,0.9733706,0.599309,1.357993,0.4050444,0.7905158,0.9271784,0.7578527,0.5424879,0.6747124,0.2870282,0.9338496,0.7848419,0.5847995,0.5593722,0.5586036,1.025079,0.3281507,0.532317,0.8535671,1.114242
31.76993,-1.082853,0.1761061,-1.632747,-1.965044,-0.05833915,-1.390424,-0.8322711,0.2906127,-0.1929872,-0.876029,-0.447486,-1.425338,-1.165015,-1.52738,-1.159143,-1.594317,-1.157642,-1.208687,-1.927802,-0.9683728,0.9598675,0.5958483,1.365132,0.4068359,0.7895231,0.9209238,0.7586729,0.5370205,0.6787832,0.2732209,0.9309712,0.7820525,0.5464713,0.5517405,0.5662358,1.022567,0.3221155,0.5063759,0.8508971,1.116295
31.89793,-1.181814,0.1089161,-1.68194,-2.038731,-0.1231014,-1.480143,-0.8874874,0.2318461,-0.2438061,-0.9298412,-0.5730484,-1.511652,-1.273222,-1.641542,-1.264212,-1.772848,-1.222401,-1.362624,-2.059463,-1.042739,0.9801599,0.5928036,1.372036,0.4044343,0.7862899,0.9216557,0.7572609,0.5339513,0.674244,0.2966944,0.9256291,0.7814137,0.5326264,0.5453084,0.5527104,1.016234,0.3191511,0.5116454,0.8494743,1.115312
32.02592,-1.272946,0.03812159,-1.717185,-2.129982,-0.1934853,-1.58765,-0.946138,0.1720122,-0.3221285,-0.9784753,-0.7085525,-1.604276,-1.438498,-1.772375,-1.418255,-1.975248,-1.300617,-1.489081,-2.212805,-1.119536,0.9641514,0.5880653,1.372844,0.4064578,0.7877544,0.9238263,0.7600028,0.5293143,0.688659,0.2921025,0.9242553,0.7823707,0.53994,0.5454958,0.5674314,1.012923,0.3177455,0.5115955,0.8544414,1.110079
32.15393,-1.330654,-0.03992164,-1.789004,-2.228573,-0.2663268,-1.692236,-1.008732,0.1045533,-0.3905913,-1.028081,-0.841152,-1.691215,-1.535725,-1.901691,-1.566548,-2.184227,-1.379341,-1.559384,-2.375219,-1.183964,0.9662361,0.5864578,1.381112,0.4057871,0.7842845,0.9262393,0.7652038,0.5240737,0.6853496,0.2771157,0.9218057,0.7758393,0.5266804,0.538868,0.5600777,1.012265,0.304888,0.4786171,0.8523099,1.118061
32.28193,-1.383319,-0.1269594,-1.84338,-2.31053,-0.3224084,-1.761904,-1.058311,0.07156181,-0.4095271,-1.059753,-0.7536031,-1.65438,-1.44971,-1.692539,-1.353727,-1.788971,-1.228646,-1.248176,-1.930947,-0.9814206,0.9471543,0.5783681,1.371068,0.4065716,0.7785434,0.9187899,0.7648475,0.5270744,0.6922359,0.2958075,0.9367576,0.782702,0.559514,0.5538676,0.5816332,1.019429,0.317986,0.5070648,0.8544276,1.097324
32.40992,-1.16868,0.06848264,-1.63628,-1.970493,-0.09984481,-1.413018,-0.8041054,0.2518886,-0.184834,-0.933576,-0.3497433,-1.357229,-1.011459,-1.372942,-1.075052,-1.302637,-1.040935,-0.9914404,-1.660234,-0.8201076,0.9515635,0.5833071,1.367359,0.4279482,0.7755249,0.9226283,0.7587777,0.5382857,0.6877677,0.2743416,0.9369777,0.7858914,0.544458,0.5679268,0.5732725,1.022018,0.3260251,0.5155749,0.8513516,1.090069
32.53792,-1.061351,0.1997788,-1.557853,-1.849571,-0.008153243,-1.298188,-0.7299504,0.3122193,-0.1274496,-0.8661954,-0.3019388,-1.323215,-1.033253,-1.367531,-1.046505,-1.318299,-1.049651,-1.037079,-1.705694,-0.8292258,0.9680412,0.5858883,1.377831,0.4267302,0.7778767,0.917106,0.7483159,0.5404114,0.6825275,0.2777199,0.9354894,0.793246,0.5657068,0.5662069,0.5620767,1.018096,0.3343771,0.5094644,0.8466302,1.084007
32.66592,-1.066409,0.2021011,-1.549931,-1.85271,0.008987297,-1.30956,-0.7463719,0.3209401,-0.1463455,-0.8436621,-0.3188223,-1.345597,-1.082226,-1.397757,-1.01251,-1.374684,-1.062404,-1.058711,-1.781023,-0.8702259,0.9780254,0.5880488,1.375744,0.4273804,0.7720439,0.9134254,0.7441522,0.5394613,0.6880418,0.2698432,0.9326587,0.7933646,0.574858,0.56716,0.5228531,1.01642,0.3264189,0.5016892,0.8419827,1.086739
32.79392,-1.088334,0.1693852,-1.588831,-1.898269,-0.03160699,-1.375137,-0.8120292,0.2782375,-0.207257,-0.8782567,-0.4253363,-1.419073,-1.176059,-1.51134,-1.183207,-1.55313,-1.134683,-1.234942,-1.931607,-0.9277363,0.9661977,0.5866917,1.381047,0.426433,0.7717634,0.9147012,0.7465134,0.5328225,0.690263,0.2735025,0.9287285,0.7883498,0.5546461,0.5637606,0.5450445,1.013462,0.3204571,0.5165034,0.838207,1.088151
32.92192,-1.179764,0.1004319,-1.614258,-1.964571,-0.09498844,-1.474105,-0.8766985,0.2072406,-0.268084,-0.9340734,-0.5551609,-1.517046,-1.268766,-1.631688,-1.277476,-1.742282,-1.199118,-1.31713,-2.067023,-1.001639,0.9716329,0.5854261,1.377178,0.4284151,0.7694736,0.9165524,0.7487851,0.5363445,0.6866276,0.2726904,0.9237098,0.7901862,0.5356966,0.5576324,0.5534675,1.008987,0.3084808,0.4886989,0.8419584,1.086976
33.04992,-1.245101,0.02743675,-1.644279,-2.016471,-0.1642343,-1.565874,-0.9392989,0.1469349,-0.3386384,-0.9717538,-0.6969546,-1.632431,-1.448057,-1.760481,-1.444304,-1.946517,-1.297713,-1.409657,-2.216697,-1.080483,0.9657927,0.5819069,1.376176,0.4421661,0.767036,0.9097314,0.7514467,0.529943,0.6940719,0.2672645,0.9193052,0.7933313,0.5358009,0.5501646,0.5507592,1.005422,0.3161511,0.479742,0.8444153,1.091092
33.17792,-1.3607,-0.04554936,-1.722012,-2.135588,-0.2480049,-1.673816,-1.008206,0.08311386,-0.4044048,-1.015846,-0.8410374,-1.738684,-1.564007,-1.878582,-1.553603,-2.155848,-1.376757,-1.537629,-2.370255,-1.157913,0.9643996,0.5777462,1.391551,0.4407185,0.7668447,0.9089659,0.7553769,0.5177668,0.6881033,0.2663385,0.9222608,0.7948147,0.5335127,0.5412976,0.5122452,1.002879,0.3042607,0.4796236,0.8417779,1.094025
33.30592,-1.403149,-0.1413274,-1.786378,-2.244398,-0.3446335,-1.790351,-1.084069,0.02461694,-0.4620408,-1.090118,-0.8596559,-1.763515,-1.534224,-1.79695,-1.432131,-1.962571,-1.285551,-1.313965,-1.999429,-0.9963002,0.9548112,0.5695089,1.386594,0.4322647,0.7645298,0.9120651,0.758957,0.5160987,0.6941565,0.2747128,0.9316759,0.8032858,0.553508,0.5520564,0.5113147,1.003907,0.3097057,0.5082334,0.8461651,1.073276
33.43392,-1.214,0.03633706,-1.621462,-1.968359,-0.1017268,-1.423656,-0.811439,0.2146211,-0.2097268,-0.9562894,-0.3644875,-1.394246,-1.065771,-1.362776,-1.073235,-1.277909,-1.045841,-0.9138535,-1.619435,-0.766126,0.9454302,0.5810993,1.390926,0.440908,0.7645634,0.9097365,0.7532386,0.5338076,0.6952246,0.258198,0.9385746,0.8058649,0.5551111,0.5821674,0.5475157,1.017888,0.3327917,0.5020859,0.8468578,1.072942
33.56192,-1.069749,0.1970713,-1.50957,-1.773695,0.04779473,-1.234286,-0.681204,0.3240462,-0.1051753,-0.8546312,-0.2131024,-1.267202,-0.9612738,-1.286101,-0.8923821,-1.194504,-0.9900807,-0.9443935,-1.614017,-0.7475435,0.9792613,0.5802861,1.394828,0.4460529,0.7645949,0.9118851,0.7425304,0.5387069,0.6917007,0.2619469,0.935163,0.8026311,0.5785431,0.5751011,0.5122381,1.013075,0.3284679,0.5188297,0.8405336,1.0685
33.68991,-1.021847,0.2308752,-1.46472,-1.748356,0.06778723,-1.246412,-0.6975783,0.323127,-0.119165,-0.8270799,-0.2351189,-1.308964,-0.9864962,-1.320862,-0.9445194,-1.254262,-0.999426,-0.9952636,-1.682462,-0.7790411,0.959363,0.5842,1.387464,0.4388805,0.7563699,0.9035569,0.7383453,0.5370737,0.6902433,0.2634121,0.9327018,0.8066263,0.5627584,0.574968,0.5230953,1.009473,0.3208142,0.5084502,0.8384658,1.06898
33.81791,-1.076337,0.2106342,-1.481851,-1.786381,0.03285089,-1.299453,-0.7509791,0.2943854,-0.1793915,-0.8535383,-0.3308413,-1.392858,-1.05997,-1.428587,-1.1022,-1.422322,-1.073871,-1.117995,-1.826944,-0.8586028,0.9709146,0.5833341,1.395523,0.4419422,0.7595238,0.9029999,0.740711,0.5297855,0.6911141,0.2633453,0.9270191,0.8052679,0.5369303,0.5691634,0.5402631,1.005968,0.3216844,0.4973804,0.8352799,1.073885
33.94592,-1.098195,0.1397356,-1.532695,-1.868115,-0.02904049,-1.394615,-0.8254842,0.2271775,-0.2544801,-0.8721282,-0.4714681,-1.499783,-1.168207,-1.55609,-1.151749,-1.625623,-1.14409,-1.239459,-1.978385,-0.9399828,0.952625,0.5806127,1.399199,0.4399849,0.7517574,0.9013804,0.743046,0.5299014,0.6975314,0.2552378,0.925037,0.8064583,0.5083688,0.5639294,0.5385086,1.003392,0.3110587,0.5015959,0.8327036,1.074047
34.07391,-1.206813,0.07120834,-1.592575,-1.968552,-0.09333121,-1.498796,-0.8983285,0.1696178,-0.3160422,-0.9190533,-0.6247059,-1.61105,-1.33773,-1.693718,-1.248051,-1.831591,-1.238709,-1.38266,-2.140899,-1.014064,0.9507381,0.5767478,1.411696,0.4399791,0.7516989,0.8981772,0.7502198,0.520223,0.6942232,0.2564669,0.9214123,0.8079695,0.5272551,0.5567424,0.5009969,1.001328,0.307953,0.4863546,0.8379827,1.075781
34.20191,-1.323547,-0.0149624,-1.647346,-2.076857,-0.1873716,-1.624505,-0.9668457,0.1017563,-0.3877396,-0.9818133,-0.7852513,-1.714804,-1.513891,-1.826652,-1.436509,-2.059263,-1.33052,-1.419012,-2.292057,-1.092652,0.9691485,0.5756394,1.410477,0.4366582,0.7537625,0.8990563,0.7543534,0.5127317,0.6920533,0.2584636,0.9201866,0.80716,0.5497299,0.5476707,0.5156696,0.9999664,0.302006,0.4586722,0.8344962,1.075778
34.32991,-1.347463,-0.09466534,-1.715511,-2.182935,-0.2770402,-1.750235,-1.037789,0.01483962,-0.4808306,-1.057663,-0.9545423,-1.850301,-1.656141,-1.96781,-1.552631,-2.299697,-1.427976,-1.583945,-2.416357,-1.178166,0.9265196,0.5711206,1.40688,0.4337846,0.7486867,0.903096,0.7580209,0.5146828,0.6952147,0.2647966,0.921283,0.8126212,0.5377179,0.5372287,0.4887863,0.9979415,0.2912965,0.4650296,0.8360859,1.075419
34.45791,-1.440542,-0.1730991,-1.737978,-2.191068,-0.2355033,-1.669258,-0.975288,0.08612885,-0.3697293,-1.020817,-0.6021612,-1.619157,-1.27136,-1.538708,-1.214444,-1.535604,-1.152547,-1.110964,-1.793549,-0.8581627,0.9154838,0.5649233,1.40265,0.4323659,0.7502257,0.8983601,0.7569771,0.5226575,0.6938605,0.2537045,0.9321692,0.8162157,0.5285099,0.5673685,0.5444241,1.01433,0.3146855,0.5124818,0.8409931,1.067354
34.58591,-1.134111,0.08476627,-1.561766,-1.812205,-0.03246993,-1.315768,-0.7362872,0.2490314,-0.1674962,-0.9021786,-0.251283,-1.355266,-0.9864497,-1.275651,-0.9564073,-1.172431,-0.9719938,-0.8654258,-1.574523,-0.7232446,0.9410354,0.5695832,1.412711,0.4506,0.743513,0.8999247,0.753051,0.5342453,0.6911725,0.2563818,0.9333849,0.8217848,0.5702185,0.5751874,0.5276591,1.014671,0.3218796,0.5177462,0.8422809,1.068561
34.71391,-1.0224,0.2134444,-1.472494,-1.718526,0.05495962,-1.239503,-0.6880093,0.3052448,-0.1357962,-0.846332,-0.2264531,-1.335957,-0.9599266,-1.298712,-0.8542603,-1.217981,-0.986715,-0.937376,-1.621696,-0.7569577,0.9489856,0.5740227,1.408807,0.4516225,0.7417321,0.9012155,0.7452998,0.5282058,0.6825069,0.251652,0.9297154,0.8200924,0.5307706,0.5695254,0.5440968,1.009605,0.3228577,0.5125291,0.8363308,1.06373
34.84191,-1.101313,0.2142639,-1.460268,-1.723424,0.05481544,-1.261871,-0.710938,0.2922991,-0.1537136,-0.8420842,-0.2715529,-1.380103,-1.039568,-1.361826,-0.9392023,-1.326118,-1.02794,-1.026065,-1.739884,-0.8124306,0.9804949,0.5755814,1.410495,0.4489419,0.739311,0.8966259,0.7452317,0.5294489,0.6816303,0.266936,0.9267629,0.8175892,0.5472341,0.5681189,0.506247,1.008615,0.3182528,0.4960414,0.8350378,1.067184
34.96991,-1.087723,0.1732008,-1.485244,-1.794575,0.01693831,-1.336986,-0.7811731,0.253577,-0.216669,-0.8600495,-0.4046102,-1.478496,-1.121825,-1.494288,-1.046391,-1.513952,-1.098143,-1.142959,-1.891552,-0.8965223,0.943661,0.5748815,1.416222,0.4510498,0.7319013,0.8912416,0.7477431,0.5244318,0.6815516,0.249206,0.924462,0.8142323,0.5213438,0.5631996,0.5073414,1.003599,0.3092,0.4936664,0.8339888,1.068853
35.09791,-1.160236,0.1024111,-1.509609,-1.883469,-0.05815023,-1.453389,-0.8457085,0.1921415,-0.2829027,-0.9014849,-0.5458704,-1.583489,-1.284437,-1.612138,-1.192417,-1.71899,-1.176333,-1.264853,-2.040189,-0.9789582,0.9356178,0.5729828,1.410427,0.4497255,0.7352471,0.8948802,0.7482889,0.5139055,0.6807281,0.2560846,0.9183428,0.8165194,0.5293691,0.5541452,0.5357302,1.004454,0.3049787,0.4740026,0.8382741,1.070869
35.22591,-1.25587,0.03730902,-1.583433,-1.978244,-0.1341815,-1.57167,-0.9203871,0.1251897,-0.3551352,-0.9644902,-0.6940901,-1.693766,-1.448919,-1.751837,-1.278824,-1.941771,-1.272023,-1.446056,-2.20309,-1.064475,0.9462671,0.5729769,1.421223,0.4482091,0.7386622,0.8919445,0.7579077,0.5124602,0.6831831,0.2533846,0.9168071,0.8162569,0.5413354,0.54536,0.504398,1.002931,0.3011792,0.4880148,0.8330926,1.07582
35.3539,-1.316906,-0.05288666,-1.640132,-2.087505,-0.2283085,-1.685406,-0.9894012,0.05946334,-0.4112464,-1.023892,-0.8448446,-1.806459,-1.550165,-1.892361,-1.372855,-2.16013,-1.356322,-1.493024,-2.350351,-1.150507,0.9327661,0.5683944,1.416026,0.4497631,0.7374933,0.8918825,0.7594836,0.5025079,0.6746765,0.2492889,0.9155856,0.8172153,0.5140258,0.5417633,0.4965264,1.004765,0.294865,0.4525592,0.8365124,1.080712
35.4819,-1.401776,-0.1428223,-1.729746,-2.193546,-0.3249054,-1.813971,-1.072046,-0.02494895,-0.5025988,-1.101029,-0.9947766,-1.919493,-1.709619,-2.024848,-1.575455,-2.379961,-1.4371,-1.623094,-2.324435,-1.17923,0.9237109,0.5606748,1.423673,0.4521902,0.728891,0.8926407,0.7639535,0.5017697,0.6854934,0.2512375,0.9121333,0.8224114,0.521485,0.530588,0.4931194,0.9983193,0.2927197,0.4884055,0.8374272,1.058534
35.60991,-1.406445,-0.1210601,-1.644807,-2.074275,-0.1953466,-1.617996,-0.915892,0.0999115,-0.3287295,-1.058944,-0.5465947,-1.615125,-1.302333,-1.507272,-1.118131,-1.504117,-1.142787,-1.147418,-1.794165,-0.9118817,0.922864,0.5603781,1.413833,0.4537838,0.731367,0.8990547,0.7603974,0.5140349,0.682027,0.257111,0.9277668,0.8272888,0.5574237,0.5650983,0.4985823,1.014265,0.3113651,0.5204774,0.8448971,1.064503
35.7379,-1.148087,0.07542679,-1.533574,-1.820586,-0.03561658,-1.376331,-0.7425645,0.2195649,-0.1840468,-0.9419828,-0.3286479,-1.42409,-1.080152,-1.358623,-0.9425731,-1.303795,-1.055984,-1.027527,-1.727857,-0.8538328,0.9465731,0.5630611,1.406945,0.4646876,0.7271318,0.8933403,0.7497104,0.5183108,0.6775008,0.2438172,0.9278146,0.8212673,0.5720569,0.5679114,0.5147081,1.017214,0.3156382,0.5157604,0.8380358,1.064851
35.8659,-1.133333,0.1449087,-1.52671,-1.787365,-0.01574004,-1.366232,-0.7563788,0.231815,-0.1788916,-0.9156468,-0.3475187,-1.452077,-1.139472,-1.398522,-0.9937266,-1.377342,-1.063995,-1.019522,-1.771464,-0.8836212,0.957786,0.5670174,1.421253,0.4638577,0.7316214,0.8916435,0.7476715,0.5147425,0.6663364,0.2466741,0.921954,0.8168995,0.5655448,0.5593567,0.5122527,1.008834,0.3062611,0.4788762,0.8375078,1.065313
35.9939,-1.136112,0.1525431,-1.534046,-1.798863,-0.02118471,-1.391519,-0.7894861,0.2181568,-0.2104072,-0.9242182,-0.417714,-1.515201,-1.197832,-1.490455,-1.072122,-1.523273,-1.123994,-1.129997,-1.900154,-0.9553115,0.9365076,0.5707814,1.416139,0.4597297,0.7317715,0.8884589,0.7469435,0.5101995,0.6633356,0.2559222,0.916705,0.817768,0.5513245,0.5547763,0.5166397,1.00767,0.3011149,0.4641221,0.8387485,1.074877
36.1219,-1.17229,0.09641699,-1.566716,-1.878856,-0.08823135,-1.490419,-0.8590096,0.173832,-0.2633981,-0.936901,-0.5589101,-1.613027,-1.310253,-1.616999,-1.179723,-1.734951,-1.206323,-1.263217,-2.050942,-1.029707,0.9255158,0.5675208,1.411871,0.4580472,0.728242,0.8884631,0.7499334,0.5083749,0.6624373,0.238774,0.9159688,0.8126414,0.5345861,0.5469397,0.5221947,1.005625,0.2986511,0.4597123,0.8348337,1.073264
36.2499,-1.255623,0.01591869,-1.658568,-1.983649,-0.1647621,-1.594948,-0.9264148,0.1126847,-0.3376587,-0.9906528,-0.702875,-1.711132,-1.460508,-1.751209,-1.332913,-1.951055,-1.295533,-1.430052,-2.205546,-1.11397,0.9336031,0.5650183,1.425199,0.4573249,0.7252178,0.8898255,0.7529949,0.5023359,0.6687256,0.2432439,0.9130249,0.8135585,0.5312958,0.5372262,0.4990279,1.006562,0.2972321,0.4845398,0.8369039,1.079525
36.3779,-1.363077,-0.06361034,-1.712043,-2.089037,-0.2506869,-1.713905,-0.9988471,0.05201613,-0.405038,-1.061644,-0.8558716,-1.821577,-1.601972,-1.890532,-1.443186,-2.186864,-1.387039,-1.489666,-2.371008,-1.205819,0.9293982,0.5604624,1.417194,0.4550355,0.7249743,0.8971421,0.7572459,0.4963574,0.661606,0.255618,0.9080064,0.8123531,0.5209703,0.52973,0.4738551,1.002393,0.2838821,0.4449289,0.8419598,1.086941
36.5059,-1.443695,-0.1413576,-1.784927,-2.20847,-0.3305418,-1.832747,-1.081649,-0.03226853,-0.4709166,-1.105146,-1.009364,-1.931123,-1.730355,-2.026154,-1.561666,-2.408437,-1.485503,-1.676693,-2.528185,-1.293581,0.9283521,0.5587686,1.411041,0.4535765,0.725832,0.8948264,0.7661073,0.4944703,0.6551301,0.2381663,0.9089685,0.8154585,0.5145105,0.5227404,0.4470172,1.001874,0.2755431,0.4640914,0.842441,1.091196
36.6339,-1.459294,-0.2334729,-1.872381,-2.318091,-0.4342958,-1.958964,-1.150512,-0.09351861,-0.5180674,-1.16006,-1.022285,-1.954136,-1.68303,-1.942964,-1.469196,-2.222499,-1.395799,-1.415104,-2.15393,-1.139476,0.9130982,0.5519595,1.409499,0.4500141,0.7264113,0.9011716,0.7673756,0.4956461,0.6524958,0.2341569,0.9163967,0.824688,0.5252037,0.528204,0.4322363,1.006728,0.2848127,0.4915875,0.8482518,1.073935
36.76189,-1.319579,-0.05595072,-1.716696,-2.039862,-0.1910268,-1.589146,-0.8912218,0.09987219,-0.2794982,-1.073184,-0.5234499,-1.609511,-1.228142,-1.475868,-1.107304,-1.480429,-1.161959,-1.090001,-1.790728,-0.9297333,0.9112574,0.563839,1.411163,0.452145,0.7285365,0.9011802,0.7626536,0.5059227,0.6542948,0.2442665,0.9249312,0.8240098,0.5446629,0.5537682,0.4537691,1.024112,0.2972476,0.5057166,0.8455477,1.081469
36.8899,-1.14774,0.09229887,-1.637895,-1.852051,-0.06707787,-1.390633,-0.7695299,0.2112209,-0.1714469,-0.971026,-0.3831088,-1.46573,-1.132263,-1.417186,-1.061177,-1.407332,-1.129004,-1.037962,-1.800969,-0.9125817,0.9426715,0.5634204,1.416467,0.454392,0.7291465,0.8955591,0.7539217,0.5070526,0.6497987,0.2424347,0.9199268,0.8137272,0.5518033,0.550855,0.5145365,1.023289,0.3033458,0.4724279,0.8405061,1.089098
37.01789,-1.169792,0.1248737,-1.610698,-1.808753,-0.06619574,-1.41018,-0.8017605,0.204238,-0.1915938,-0.9330568,-0.4185328,-1.51066,-1.188643,-1.454922,-1.071827,-1.466645,-1.142029,-1.164718,-1.883169,-0.9510919,0.9352797,0.5663846,1.405817,0.4640115,0.7291379,0.8929391,0.7516317,0.5111793,0.6476977,0.2387174,0.9152882,0.8163337,0.5467678,0.5459862,0.5011494,1.020912,0.2884097,0.5221357,0.8419355,1.093404
37.14589,-1.143774,0.1015677,-1.650835,-1.88016,-0.09917441,-1.483693,-0.8569995,0.1898612,-0.2435638,-0.9487316,-0.5332714,-1.574095,-1.289318,-1.579599,-1.223021,-1.668395,-1.231033,-1.270508,-2.048978,-1.018479,0.8943439,0.5697383,1.412295,0.4608278,0.7309994,0.8955093,0.7549875,0.5032328,0.6462643,0.2440487,0.9119462,0.8088344,0.526706,0.5407367,0.4897647,1.023525,0.2901113,0.495147,0.8403527,1.099067
37.27389,-1.217961,0.0375726,-1.70811,-1.959789,-0.1691417,-1.59051,-0.9304749,0.1288398,-0.311574,-1.002438,-0.6786846,-1.671125,-1.454389,-1.714977,-1.307912,-1.891688,-1.314469,-1.407624,-2.204586,-1.105902,0.9136912,0.5683098,1.424532,0.4633684,0.7303947,0.898231,0.7606497,0.5020904,0.6520135,0.2461254,0.9078196,0.8067187,0.544484,0.531625,0.4804622,1.023616,0.282191,0.4728363,0.8405617,1.107814
37.40189,-1.313867,-0.03815107,-1.753159,-2.059741,-0.2523269,-1.705879,-1.00115,0.06245885,-0.3687923,-1.013898,-0.8346097,-1.770676,-1.541996,-1.854264,-1.464194,-2.111642,-1.406148,-1.531237,-2.374946,-1.196352,0.9110004,0.5651863,1.410025,0.4657598,0.7322477,0.8977669,0.7672006,0.497664,0.6485609,0.2186763,0.9031577,0.8101115,0.5076024,0.5231147,0.4678205,1.022022,0.2789566,0.4756449,0.8403158,1.112661
