t_sec,abp_mmHg,resp_arbunit,spo2_unitless,scon_muS
0,76.30434,-0.3238609,0.9900191,6.748534
0.04981672,82.91606,-0.3310193,0.9898543,6.748534
0.1005146,104.1499,-0.3381779,0.9898543,6.735615
0.1512399,109.1087,-0.3471257,0.9898543,6.735615
0.2002953,105.93,-0.3605479,0.9898543,6.735615
0.2501709,99.06393,-0.3766544,0.9898543,6.735615
0.3001878,93.85085,-0.3829179,0.9896896,6.735615
0.3511193,92.7065,-0.4321323,0.9898543,6.729156
0.4009424,92.19792,-0.4536076,0.9898543,6.729156
0.4496914,91.81647,-0.4706088,0.9896896,6.722697
0.499679,84.95044,-0.5046112,0.9896896,6.722697
0.5495265,82.15317,-0.5636685,0.9896896,6.716238
0.6008106,79.73734,-0.5905126,0.9898543,6.716238
0.6512935,76.55863,-0.6146721,0.9896896,6.709778
0.7001866,75.03284,-0.6316733,0.9896896,6.709778
0.7497424,102.6241,-0.6522537,0.9898543,6.709778
0.8001831,109.8716,-0.669255,0.9898543,6.70332
0.8514144,108.7272,-0.6728343,0.9898543,6.70332
0.9011843,100.4626,-0.6916253,0.9898543,6.70332
0.9499373,93.46941,-0.6978889,0.9898543,6.69686
0.9996438,92.19792,-0.729207,0.9898543,6.69686
1.049642,92.57936,-0.7784211,0.9896896,6.690401
1.101616,93.34225,-0.8142133,0.9898543,6.690401
1.151501,85.71333,-0.8580586,0.9898543,6.683942
1.200034,82.53461,-0.8992196,0.9900191,6.683942
1.250319,80.50024,-0.907273,0.9896896,6.683942
1.299932,77.57583,-0.9359066,0.9898543,6.677483
1.351184,75.79574,-1.006596,0.9896896,6.671023
1.400849,90.67213,-1.188241,0.9898543,6.671023
1.450057,109.8716,-1.302776,0.9799718,6.671023
1.499932,109.6173,-1.343042,0.9798071,6.671023
1.550191,104.5313,-1.42268,0.9798071,6.671023
1.601324,99.95398,-1.476368,0.9798071,6.664565
1.651438,94.61374,-1.480842,0.9798071,6.664565
1.699935,92.96081,-1.514845,0.9798071,6.664565
1.749927,93.85085,-1.531846,0.9796425,6.658105
1.799494,89.2735,-1.504107,0.9799718,6.658105
1.850658,85.20473,-1.472789,0.9798071,6.658105
1.900629,81.13599,-1.458472,0.9798071,6.651646
1.949934,80.11879,-1.428943,0.9796425,6.651646
1.999929,76.43149,-1.405678,0.9799718,6.651646
2.049497,76.68578,-1.394046,0.9798071,6.645187
2.100665,102.2427,-1.35378,0.9798071,6.645187
2.151515,111.0159,-1.330515,0.9798071,6.645187
2.199977,107.71,-1.244614,0.9798071,6.638728
2.249651,103.2598,-1.079075,0.9799718,6.638728
2.300645,97.28386,-0.9278532,0.9798071,6.638728
2.350656,93.08795,-0.8768496,0.9798071,6.632268
2.401651,92.7065,-0.7569458,0.9798071,6.632268
2.450438,93.08795,-0.7014682,0.9798071,6.632268
2.499929,87.62056,-0.6710448,0.9799718,6.62581
2.549927,82.28033,-0.6254097,0.9798071,6.632268
2.600989,79.86449,-0.5797749,0.9799718,6.62581
2.65093,79.10161,-0.5520357,0.9798071,6.62581
2.699537,77.95727,-0.5180334,0.9796425,6.61935
2.75038,103.8956,-0.4133413,0.9796425,6.61935
2.799753,109.2358,-0.3372832,0.9799718,6.61935
2.850882,107.5829,-0.3014909,0.9796425,6.612891
2.90063,99.95398,-0.2719623,0.9798071,6.61935
2.950632,93.46941,-0.2406441,0.9798071,6.612891
2.999845,91.56216,-0.2102211,0.9798071,6.612891
3.049652,92.32506,-0.1815872,0.9798071,6.606432
3.100923,91.81647,-0.1592172,0.9798071,6.606432
3.150923,85.71333,-0.1162666,0.9796425,6.599973
3.199837,81.00883,-0.1019497,0.9798071,6.606432
3.250043,78.21156,-0.09210681,0.9799718,6.599973
3.299924,75.03284,-0.08315901,0.9798071,6.599973
3.351166,74.77856,-0.07778986,0.9798071,6.599973
3.401165,94.99519,-0.07689511,0.9798071,6.599973
3.449601,107.71,-0.08315901,0.9798071,6.593513
3.500572,102.2427,-0.09210681,0.9799718,6.593513
3.550474,98.6825,-0.1037392,0.9798071,6.593513
3.600525,90.67213,-0.1216355,0.9798071,6.593513
3.650879,92.07076,-0.1314783,0.9798071,6.587055
3.70071,92.57936,-0.1440055,0.9796425,6.587055
3.750537,92.32506,-0.1592172,0.9798071,6.587055
3.799873,84.69615,-0.1690601,0.9798071,6.587055
3.850584,82.53461,-0.1815872,0.9796425,6.580595
3.901495,77.06723,-0.1860612,0.9798071,6.587055
3.950287,76.94007,-0.1976936,0.9796425,6.580595
3.999953,99.31824,-0.2066418,0.9798071,6.580595
4.05038,108.9815,-0.2182741,0.9796425,6.574136
4.101418,107.71,-0.2379599,0.9896896,6.574136
4.151246,104.0227,-0.2495923,0.9898543,6.574136
4.199713,98.30104,-0.2603299,0.9898543,6.574136
4.249998,94.48659,-0.2719623,0.9896896,6.574136
4.299747,94.35944,-0.3005962,0.9896896,6.574136
4.350917,94.10515,-0.3229662,0.9896896,6.567677
4.400918,93.978,-0.3498103,0.9898543,6.567677
4.449586,84.0604,-0.4419749,0.9896896,6.567677
4.500749,82.15317,-0.5260864,0.9896896,6.567677
4.550601,79.73734,-0.5931968,0.9898543,6.561218
4.601424,81.39028,-0.6307785,0.9896896,6.561218
4.65175,105.6757,-0.6952043,0.9896896,6.561218
4.700122,112.4145,-0.7551563,0.9896896,6.561218
4.750118,109.2358,-0.8938508,0.9896896,6.561218
4.800083,105.4214,-1.037914,0.9799718,6.561218
4.850842,101.0983,-1.154238,0.9798071,6.554759
4.900634,96.01237,-1.402994,0.9796425,6.554759
4.950634,95.88522,-1.408363,0.9798071,6.554759
5.000579,94.48659,-1.39852,0.9799718,6.554759
5.050406,89.14634,-1.366307,0.9798071,6.554759
5.100697,85.33189,-1.321567,0.9798071,6.554759
5.15164,83.67896,-1.287565,0.9796425,6.5483
5.200704,78.97446,-1.256246,0.9798071,6.5483
5.250367,83.42466,-1.185557,0.9798071,6.5483
5.300095,109.9987,-1.115762,0.9799718,6.5483
5.351393,111.5245,-1.025387,0.9798071,6.5483
5.400869,108.3458,-0.8732703,0.9799718,6.5483
5.450408,106.3114,-0.7506823,0.9798071,6.541841
5.500407,100.7169,-0.6459902,0.9798071,6.5483
5.549865,96.90242,-0.5726163,0.9798071,6.541841
5.600826,96.13953,-0.4759776,0.9798071,6.541841
5.651078,94.2323,-0.3864972,0.9798071,6.541841
5.700665,88.25631,-0.3453362,0.9798071,6.541841
5.750405,85.96764,-0.3193869,0.9798071,6.541841
5.80041,82.53461,-0.2773311,0.9799718,6.541841
5.850829,82.53461,-0.264804,0.9796425,6.535381
5.900623,79.10161,-0.2406441,0.9798071,6.535381
5.95041,103.5141,-0.2048523,0.9798071,6.535381
5.999869,109.8716,-0.1797977,0.9798071,6.535381
6.050643,108.3458,-0.1619014,0.9798071,6.535381
6.100646,105.1671,-0.1529536,0.9798071,6.528922
6.151627,98.30104,-0.1314783,0.9798071,6.528922
6.199811,94.74089,-0.1082133,0.9798071,6.528922
6.250082,95.37663,-0.09389663,0.9798071,6.528922
6.299864,95.24948,-0.09568613,0.9798071,6.535381
6.351072,89.65494,-0.09837037,0.9798071,6.528922
6.401059,87.49342,-0.105529,0.9798071,6.528922
6.44983,82.53461,-0.1207407,0.9798071,6.528922
6.500731,81.00883,-0.1520589,0.9799718,6.528922
6.55008,84.95044,-0.1735341,0.9798071,6.528922
6.601403,106.82,-0.1806924,0.9798071,6.522463
6.650708,109.1087,-0.1932196,0.9798071,6.522463
6.700722,106.82,-0.1976936,0.9796425,6.522463
6.749863,102.6241,-0.2164846,0.9798071,6.522463
6.799848,96.01237,-0.2334858,0.9799718,6.522463
6.851151,94.48659,-0.2540663,0.9799718,6.516004
6.900674,94.86804,-0.2755416,0.9798071,6.516004
6.95063,94.48659,-0.2997015,0.9798071,6.516004
7.001278,86.34908,-0.3131233,0.9798071,6.516004
7.050482,84.69615,-0.3229662,0.9799718,6.516004
7.100233,80.88168,-0.3435467,0.9798071,6.516004
7.149855,77.70296,-0.4303425,0.9798071,6.509544
7.199569,88.25631,-0.5627734,0.9799718,6.509544
7.250702,106.6929,-0.6003551,0.9798071,6.509544
7.300117,110.6345,-0.6424109,0.9798071,6.509544
7.350487,106.6929,-0.6862565,0.9798071,6.516004
7.400356,102.8784,-0.7721575,0.9798071,6.503086
7.45075,98.42819,-0.8303198,0.9798071,6.503086
7.500704,93.72369,-0.9314325,0.9798071,6.503086
7.549844,94.99519,-0.9913842,0.9798071,6.503086
7.600749,94.10515,-1.03523,0.9798071,6.509544
7.650087,87.36626,-1.053126,0.9798071,6.503086
7.700274,84.3147,-1.020913,0.9798071,6.509544
7.751145,83.04321,-1.003912,0.9798071,6.509544
7.800755,80.11879,-0.9922793,0.9798071,6.503086
7.850205,80.24594,-0.974383,0.9798071,6.509544
7.89998,79.61021,-0.9421701,0.9798071,6.503086
7.949772,109.2358,-0.9171156,0.9798071,6.509544
8.000733,107.3286,-0.8285303,0.9798071,6.503086
8.050354,105.6757,-0.6916253,0.9798071,6.503086
8.100601,96.01237,-0.5967761,0.9798071,6.503086
8.150228,95.24948,-0.5314553,0.9798071,6.509544
8.200141,96.01237,-0.3918661,0.9798071,6.509544
8.251142,95.75809,-0.3041752,0.9798071,6.503086
8.300575,89.40065,-0.269278,0.9798071,6.503086
8.350608,83.80611,-0.2406441,0.9798071,6.509544
8.40048,83.17036,-0.2120106,0.9798071,6.509544
8.450224,79.48306,-0.1887458,0.9798071,6.509544
8.500859,82.78893,-0.1771131,0.9798071,6.509544
8.549644,100.2083,-0.1663755,0.9798071,6.509544
8.600618,107.4557,-0.1520589,0.9799718,6.509544
8.65035,107.0743,-0.14669,0.9798071,6.509544
8.70014,103.1327,-0.1350573,0.9798071,6.509544
8.751094,96.64812,-0.09837037,0.9799718,6.509544
8.800668,92.07076,-0.08763274,0.9798071,6.509544
8.850115,91.68932,-0.08136918,0.9798071,6.509544
8.899949,94.10515,-0.08584324,0.9798071,6.509544
8.949849,89.14634,-0.1073185,0.9798071,6.509544
9.001307,84.18755,-0.1305833,0.9798071,6.509544
9.049615,81.51743,-0.1341626,0.9798071,6.509544
9.099608,78.46587,-0.1323731,0.9798071,6.509544
9.150638,81.00883,-0.09479138,0.9799718,6.509544
9.200412,108.6001,0.05553578,0.9798071,6.509544
9.251594,109.6173,0.1253304,0.9798071,6.516004
9.299841,106.5657,0.0984863,0.9798071,6.509544
9.349895,102.1155,0.03585001,0.9798071,6.516004
9.399635,95.50377,-0.05810442,0.9799718,6.522463
9.44961,92.83366,-0.07868493,0.9798071,6.516004
9.500611,95.12233,-0.06257849,0.9798071,6.516004
9.55076,95.88522,-0.0715263,0.9798071,6.516004
9.600839,86.98483,-0.123425,0.9798071,6.516004
9.650386,80.11879,-0.4052882,0.9798071,6.516004
9.699858,78.08442,-0.8446367,0.9799718,6.516004
9.750822,76.30434,-1.050442,0.9798071,6.516004
9.799764,82.40748,-0.9913842,0.9799718,6.509544
9.84971,86.98483,-0.9448547,0.9799718,6.516004
9.90031,107.5829,-0.9001144,0.9798071,6.509544
9.950209,105.4214,-1.134553,0.9798071,6.509544
10.00134,101.6069,-1.889767,0.9798071,6.509544
10.04994,96.01237,-2.220845,0.9798071,6.509544
10.10095,92.19792,-2.525972,0.9798071,6.509544
10.15076,91.81647,-2.653034,0.9798071,6.509544
10.20026,92.96081,-2.971584,0.9798071,6.509544
10.25146,81.77173,-3.819858,0.9798071,6.509544
10.29976,81.51743,-4.575967,0.9798071,6.509544
10.35087,77.44867,-5.154905,0.9799718,6.509544
10.39975,74.39711,-5.097638,0.9799718,6.509544
10.44976,82.28033,-5.103901,0.9898543,6.509544
10.50069,107.4557,-5.098532,0.9896896,6.509544
10.55021,109.1087,-5.093163,0.9896896,6.503086
10.59967,102.7513,-5.06453,0.9898543,6.503086
10.65087,97.02956,-4.875726,0.9898543,6.503086
10.70033,91.05358,-4.737926,0.9898543,6.509544
10.75138,89.0192,-5.120903,0.9898543,6.503086
10.80025,89.40065,-5.101217,0.9898543,6.503086
10.85023,89.2735,-5.098532,0.9898543,6.503086
10.90006,86.34908,-5.094954,0.9898543,6.503086
10.95023,82.91606,-5.081531,0.9898543,6.503086
11.00108,81.13599,-5.072583,0.9896896,6.503086
11.05071,77.70296,-5.084216,0.9896896,6.503086
11.10031,98.30104,-5.111059,0.9900191,6.503086
11.15071,109.8716,-5.110165,0.9898543,6.503086
11.20071,105.0399,-5.115533,0.9898543,6.503086
11.25133,99.19109,-5.113744,0.9898543,6.496626
11.2998,91.81647,-5.103901,0.9896896,6.503086
11.35071,86.98483,-5.070794,0.9898543,6.503086
11.4006,85.84048,-5.063635,0.9898543,6.503086
11.45056,87.87486,-5.04037,0.9898543,6.503086
11.50156,86.73053,-5.041265,0.9896896,6.496626
11.55008,76.17719,-5.057371,0.9898543,6.503086
11.60071,75.41429,-5.020684,0.9898543,6.503086
11.6504,75.41429,-4.674396,0.9898543,6.503086
11.70018,77.83012,-4.011346,0.9898543,6.509544
11.75154,108.9815,-3.439567,0.9896896,6.503086
11.80083,107.2015,-3.180074,0.9898543,6.509544
11.85021,106.82,-3.045853,0.9898543,6.516004
11.90067,92.57936,-2.732672,0.9898543,6.516004
11.95087,85.20473,-2.537605,0.9898543,6.522463
12.00121,86.34908,-2.251268,0.9898543,6.522463
12.04997,89.78209,-2.08215,0.9898543,6.528922
12.1007,88.89205,-1.926454,0.9898543,6.535381
12.15005,76.94007,-1.685752,0.9896896,6.535381
12.1997,76.43149,-1.573007,0.9898543,6.541841
12.25183,74.01566,-1.545268,0.9898543,6.5483
12.30009,81.26313,-1.533635,0.9898543,6.554759
12.35046,99.82683,-1.490685,0.9898543,6.561218
12.4002,107.5829,-1.349306,0.9898543,6.567677
12.44982,101.0983,-1.134553,0.9900191,6.574136
12.50081,90.03638,-1.025387,0.9898543,6.574136
12.55006,83.93326,-0.9466442,0.9898543,6.580595
12.60011,87.87486,-0.9045884,0.9900191,6.593513
12.6497,87.49342,-0.807055,0.9898543,6.599973
12.70082,84.44184,-0.6790978,0.9898543,6.606432
12.75146,75.41429,-0.646885,0.9898543,6.61935
12.80005,73.88851,-0.6307785,0.9898543,6.62581
12.8501,73.76136,-0.6254097,0.9898543,6.632268
12.90009,92.7065,-0.5726163,0.9898543,6.638728
12.95087,109.1087,-0.373075,0.9898543,6.651646
13.00158,103.5141,-0.246908,0.9898543,6.658105
13.0501,97.9196,-0.2316963,0.9898543,6.664565
13.09994,84.82329,-0.1914301,0.9898543,6.677483
13.15009,85.58618,-0.1547431,0.9898543,6.683942
13.20006,85.45904,-0.1404261,0.9898543,6.69686
13.25106,85.45904,-0.1529536,0.9898543,6.69686
13.29986,79.73734,-0.3005962,0.9898543,6.709778
13.35117,74.77856,-0.4562919,0.9898543,6.716238
13.40086,72.10844,-0.6271995,0.9898543,6.722697
13.45057,76.17719,-0.910852,0.9896896,6.735615
13.50187,103.1327,-1.421785,0.9896896,6.742074
13.55059,111.3974,-1.849501,0.9898543,6.748534
13.60135,102.3698,-2.201159,0.9900191,6.761452
13.65057,91.81647,-2.575186,0.9900191,6.767911
13.70061,85.96764,-2.767569,0.9898543,6.767911
13.75078,87.49342,-3.360824,0.9898543,6.780829
13.80086,88.25631,-3.790329,0.9898543,6.780829
13.85084,87.87486,-3.343823,0.9898543,6.787289
13.90084,87.62056,-2.593083,0.9898543,6.800207
13.95042,77.06723,-2.517024,0.9898543,6.806666
14.00182,74.90571,-2.317483,0.9898543,6.813125
14.05057,93.2151,-1.749283,0.9898543,6.819584
14.10182,106.82,-0.9260637,0.9898543,6.826044
14.15078,103.7684,-0.4750828,0.9898543,6.832502
14.20074,96.52097,-0.2907533,0.9898543,6.838962
14.25185,87.74771,-0.287174,0.9898543,6.845421
14.30057,85.96764,-0.3864972,0.9898543,6.85188
14.35109,86.34908,-0.9036937,0.9898543,6.858339
14.39999,88.63776,-1.760915,0.9900191,6.858339
14.45083,80.24594,-2.60382,0.9898543,6.864799
14.50096,76.05004,-3.747379,0.9898543,6.871257
14.55033,75.28716,-4.020294,0.9896896,6.877717
14.60103,98.1739,-3.971975,0.9896896,6.884176
14.65057,110.5073,-3.877126,0.9898543,6.890635
14.7002,107.5829,-3.769749,0.9898543,6.897094
14.75103,101.8612,-3.568418,0.9896896,6.897094
14.80073,92.83366,-3.316979,0.9898543,6.903553
14.85186,89.65494,-3.147861,0.9898543,6.910012
14.90045,88.00201,-3.102226,0.9898543,6.916471
14.94989,88.25631,-3.051222,0.9898543,6.922931
15.00082,80.62739,-2.97069,0.9898543,6.92939
15.05066,76.94007,-2.812309,0.9898543,6.92939
15.10173,77.57583,-2.44723,0.9898543,6.92939
15.15012,99.95398,-2.180578,0.9898543,6.935849
15.19981,111.1431,-2.017724,0.9900191,6.942308
15.25173,106.6929,-1.751967,0.9898543,6.948768
15.29986,100.5897,-1.479947,0.9898543,6.948768
15.35177,91.43503,-1.356464,0.9898543,6.955227
15.39993,86.73053,-1.179293,0.9900191,6.955227
15.45063,87.11198,-0.7542616,0.9898543,6.961686
15.50145,88.25631,-0.506401,0.9900191,6.961686
15.55032,84.18755,-0.3158079,0.9898543,6.968145
15.60144,75.79574,-0.1583224,0.9898543,6.961686
15.65031,79.61021,-0.05810442,0.9898543,6.974604
15.70031,100.9712,-0.04199798,0.9898543,6.974604
15.75115,110.8888,-0.006205763,0.9898543,6.981063
15.80073,106.82,0.05732527,0.9898543,6.981063
15.85168,101.4798,0.1396473,0.9898543,6.993981
15.90044,88.63776,0.2094419,0.9898543,6.993981
15.95039,88.12916,0.3293457,0.9896896,7.000441
16.00143,91.05358,0.381244,0.9898543,7.0069
16.05009,91.68932,0.417931,0.9898543,7.0069
16.10131,83.80611,0.4993583,0.9896896,7.0069
16.14986,77.83012,0.5467829,0.9898543,7.013359
16.19997,86.60338,0.5709424,0.9898543,7.013359
16.25122,111.0159,0.5342554,0.9898543,7.019818
16.29985,110.3802,0.4984635,0.9896896,7.019818
16.3511,105.4214,0.5253076,0.9898543,7.026278
16.40056,96.13953,0.5700476,0.9900191,7.026278
16.45028,88.38345,0.6129982,0.9898543,7.026278
16.50118,88.38345,0.6299997,0.9898543,7.032737
16.55004,90.29069,0.6246309,0.9898543,7.032737
16.60124,89.90925,0.6094192,0.9900191,7.032737
16.6501,80.88168,0.55931,0.9896896,7.032737
16.70024,78.08442,0.5244129,0.9900191,7.045655
16.75102,107.3286,0.5387295,0.9898543,7.039196
16.80041,109.363,0.595997,0.9898543,7.045655
16.85109,108.7272,0.5986816,0.9896896,7.045655
16.89997,97.9196,0.58168,0.9898543,7.052114
16.9501,91.68932,0.551257,0.9898543,7.045655
17.00084,91.05358,0.5092012,0.9898543,7.045655
17.04984,90.67213,0.4760932,0.9898543,7.052114
17.1011,90.54498,0.4474596,0.9898543,7.052114
17.14984,82.78893,0.381244,0.9900191,7.058573
17.20084,79.61021,0.3597687,0.9898543,7.058573
17.25184,86.34908,0.3454521,0.9898543,7.058573
17.30059,107.0743,0.3329247,0.9898543,7.058573
17.35163,110.253,0.3123442,0.9896896,7.058573
17.40009,107.9643,0.281026,0.9898543,7.058573
17.45009,99.69969,0.3060806,0.9898543,7.058573
17.50126,91.30788,0.3257664,0.9896896,7.065033
17.55009,91.81647,0.3239769,0.9898543,7.065033
17.60176,92.45221,0.3132392,0.9896896,7.065033
17.64984,87.11198,0.314134,0.9898543,7.065033
17.69984,83.17036,0.2962377,0.9898543,7.065033
17.75196,82.78893,0.2720782,0.9896896,7.065033
17.80021,96.90242,0.2613406,0.9900191,7.065033
17.85135,113.3046,0.2846054,0.9896896,7.065033
17.89985,109.7444,0.2863948,0.9900191,7.065033
17.95035,104.9128,0.2559718,0.9898543,7.071491
18.00157,95.75809,0.254182,0.9898543,7.071491
18.05084,93.46941,0.2353913,0.9898543,7.065033
18.10084,93.46941,0.2291277,0.9898543,7.071491
18.15053,93.2151,0.217495,0.9896896,7.071491
18.20013,87.87486,0.2210743,0.9900191,7.065033
18.25119,81.39028,0.2031784,0.9898543,7.071491
18.29981,83.04321,0.191546,0.9898543,7.071491
18.35106,104.277,0.1799133,0.9898543,7.065033
18.40017,114.3218,0.1763343,0.9898543,7.071491
18.44979,111.5245,0.1682809,0.9898543,7.071491
18.50151,106.82,0.1512797,0.9898543,7.071491
18.55004,99.95398,0.1477004,0.9896896,7.071491
18.60091,95.12233,0.1199616,0.9898543,7.071491
18.6504,94.10515,0.1056446,0.9898543,7.071491
18.69983,93.34225,0.06806291,0.9898543,7.071491
18.75084,88.5106,0.02958645,0.9898543,7.077951
18.80039,83.04321,-0.001731695,0.9898543,7.071491
18.85116,81.51743,-0.03483934,0.9896896,7.077951
18.89984,81.39028,-0.05720967,0.9896896,7.077951
18.95081,113.0503,0.002742373,0.9898543,7.077951
19.00155,112.5417,0.1020656,0.9898543,7.08441
19.05004,109.7444,0.1101187,0.9898543,7.08441
19.10191,102.3698,0.1065394,0.9898543,7.077951
19.15038,96.13953,0.09938105,0.9898543,7.090869
19.20004,94.10515,0.08595917,0.9900191,7.08441
19.25095,94.35944,0.1119082,0.9896896,7.090869
19.3,93.08795,0.2058626,0.9898543,7.090869
19.3512,84.69615,0.3114494,0.9896896,7.097328
19.4005,80.50024,0.3830338,0.9898543,7.097328
19.45096,78.59301,0.4116674,0.9900191,7.103787
19.50165,88.7649,0.4098779,0.9898543,7.103787
19.55043,112.1602,0.4009298,0.9896896,7.103787
19.60153,110.8888,0.4009298,0.9898543,7.110247
19.6509,108.8544,0.4062986,0.9898543,7.110247
19.70096,104.6585,0.4295637,0.9898543,7.110247
19.75108,97.28386,0.4707244,0.9900191,7.110247
19.80016,94.2323,0.5083061,0.9898543,7.123165
19.85116,93.46941,0.55931,0.9898543,7.116706
19.90078,93.08795,0.5986816,0.9898543,7.123165
19.95016,86.73053,0.6291046,0.9898543,7.123165
20.00111,81.13599,0.6568438,0.9898543,7.129624
20.05032,79.22876,0.6675814,0.9900191,7.129624
20.10142,76.05004,0.6738449,0.9898543,7.129624
20.15087,74.52426,0.6890566,0.9896896,7.136083
20.20051,103.8956,0.700689,0.9898543,7.136083
20.25091,111.2702,0.7159007,0.9898543,7.136083
20.30053,109.6173,0.737376,0.9898543,7.136083
20.35182,106.5657,0.7472189,0.9896896,7.136083
20.40028,101.4798,0.7651148,0.9898543,7.142543
20.45052,94.2323,0.7865901,0.9898543,7.142543
20.5018,92.57936,0.8035913,0.9898543,7.142543
20.55007,92.19792,0.8223823,0.9896896,7.142543
20.60152,87.23911,0.8438576,0.9898543,7.149002
20.64978,81.39028,0.859964,0.9898543,7.149002
20.69978,80.11879,0.8715964,0.9898543,7.149002
20.75103,75.54144,0.8850186,0.9898543,7.149002
20.80051,74.90571,0.9020198,0.9898543,7.149002
20.8515,74.39711,0.9181262,0.9896896,7.149002
20.90019,110.6345,0.937812,0.9898543,7.155461
20.95003,109.363,0.9512339,0.9898543,7.155461
21.00153,104.1499,0.9691302,0.9900191,7.155461
21.0499,97.15671,0.996869,0.9898543,7.149002
21.10079,91.30788,1.026398,0.9898543,7.155461
21.15078,91.05358,1.050557,0.9898543,7.155461
21.20028,90.67213,1.068453,0.9898543,7.155461
21.25107,87.49342,1.081875,0.9898543,7.155461
21.30079,82.28033,1.085455,0.9898543,7.155461
21.35151,79.86449,1.090823,0.9898543,7.155461
21.40032,76.05004,1.092613,0.9898543,7.155461
21.44978,75.03284,1.094402,0.9900191,7.155461
21.50107,93.978,1.097087,0.9900191,7.155461
21.55077,109.9987,1.093508,0.9898543,7.155461
21.60176,107.0743,1.086349,0.9900191,7.155461
21.65036,101.2255,1.08277,0.9900191,7.155461
21.70032,93.59654,1.080086,0.9898543,7.155461
21.75127,89.40065,1.076506,0.9900191,7.155461
21.7999,89.5278,1.074717,0.9900191,7.155461
21.8515,89.40065,1.069348,0.9896896,7.155461
21.90106,83.55181,1.063979,0.9898543,7.155461
21.9499,78.59301,1.0604,0.9898543,7.155461
22.00127,76.30434,1.061295,0.9900191,7.155461
22.05074,71.85413,1.055926,0.9898543,7.155461
22.10078,81.13599,1.050557,0.9900191,7.149002
22.15058,106.6929,1.049662,0.9898543,7.155461
22.20058,109.1087,1.046978,0.9898543,7.149002
22.2516,105.93,1.043399,0.9898543,7.149002
22.29994,100.844,1.040714,0.9898543,7.149002
22.35202,92.96081,1.039819,0.9898543,7.149002
22.40056,89.90925,1.034451,0.9898543,7.149002
22.45037,88.89205,1.028187,0.9898543,7.142543
22.50158,88.7649,1.020134,0.9898543,7.149002
22.55014,80.11879,1.009396,0.9896896,7.142543
22.60137,76.68578,0.9941844,0.9896896,7.142543
22.64998,74.90571,0.9816573,0.9898543,7.142543
22.70091,71.09124,0.9691302,0.9898543,7.136083
22.75202,78.72016,0.9619715,0.9896896,7.142543
22.8004,98.55534,0.9539185,0.9898543,7.136083
22.85159,110.1259,0.9485496,0.9896896,7.136083
22.89985,106.4386,0.9422861,0.9898543,7.136083
22.95019,102.8784,0.9369172,0.9898543,7.136083
23.00139,94.48659,0.9351274,0.9898543,7.136083
23.05014,89.40065,0.9324432,0.9898543,7.129624
23.10164,89.0192,0.9306533,0.9898543,7.129624
23.14993,89.0192,0.9288639,0.9898543,7.129624
23.20106,86.34908,0.9261796,0.9896896,7.129624
23.25085,78.46587,0.9208108,0.9898543,7.129624
23.29989,75.79574,0.915442,0.9898543,7.123165
23.3519,70.58266,0.9073886,0.9898543,7.123165
23.40056,72.87133,0.8993356,0.9898543,7.123165
23.45098,100.7169,0.8930717,0.9798071,7.123165
23.50153,109.4901,0.8859133,0.9799718,7.123165
23.55067,106.5657,0.8841239,0.9799718,7.116706
23.60175,99.06393,0.8832288,0.9799718,7.116706
23.65014,93.34225,0.8841239,0.9798071,7.116706
23.70006,88.25631,0.8796498,0.9798071,7.116706
23.7511,88.25631,0.87786,0.9798071,7.116706
23.80079,87.74771,0.8689122,0.9798071,7.110247
23.85089,79.48306,0.8671223,0.9798071,7.110247
23.90005,76.55863,0.8635433,0.9798071,7.110247
23.95089,71.98129,0.8617535,0.9799718,7.103787
24.00155,70.32835,0.8528057,0.9799718,7.103787
24.05076,73.88851,0.8429628,0.9798071,7.103787
24.10103,98.04675,0.8349094,0.9798071,7.097328
24.15038,108.9815,0.8331199,0.9798071,7.097328
24.2003,106.6929,0.8223823,0.9798071,7.097328
24.25124,102.2427,0.8125394,0.9798071,7.090869
24.30051,93.85085,0.8125394,0.9798071,7.090869
24.35164,89.0192,0.796433,0.9798071,7.090869
24.39986,87.49342,0.7883799,0.9799718,7.090869
24.45101,88.12916,0.778537,0.9798071,7.090869
24.50175,82.02603,0.7660096,0.9798071,7.08441
24.55005,75.92289,0.7400602,0.9799718,7.08441
24.60124,72.36273,0.7266384,0.9798071,7.08441
24.65005,71.09124,0.7167955,0.9798071,7.077951
24.70032,71.59984,0.7114267,0.9798071,7.077951
24.75185,77.95727,0.7060578,0.9798071,7.077951
24.8003,109.2358,0.7141109,0.9799718,7.077951
24.85152,108.3458,0.7320072,0.9799718,7.071491
24.90088,98.80965,0.737376,0.9798071,7.071491
24.95013,91.05358,0.7534825,0.9799718,7.071491
25.00135,87.23911,0.7615355,0.9798071,7.065033
25.05085,86.34908,0.7695889,0.9798071,7.065033
25.10087,87.11198,0.7803265,0.9798071,7.065033
25.15078,84.0604,0.7839059,0.9799718,7.058573
25.20078,75.03284,0.7865901,0.9798071,7.058573
25.25152,71.47269,0.7928537,0.9798071,7.058573
25.30101,70.70979,0.796433,0.9798071,7.052114
25.35114,69.81975,0.8018018,0.9798071,7.052114
25.39986,83.67896,0.8035913,0.9798071,7.052114
25.45075,110.1259,0.8116447,0.9798071,7.045655
25.50217,107.2015,0.815224,0.9798071,7.045655
25.55042,100.4626,0.8205928,0.9798071,7.045655
25.60138,95.63092,0.8277511,0.9798071,7.039196
25.64987,88.38345,0.8322252,0.9798071,7.039196
25.70047,86.73053,0.8384888,0.9798071,7.032737
25.75177,87.74771,0.8420681,0.9798071,7.032737
25.8005,83.67896,0.8474369,0.9798071,7.026278
25.85148,79.3559,0.8483316,0.9799718,7.026278
25.90063,73.50706,0.8492264,0.9798071,7.026278
25.95062,71.34554,0.8501211,0.9798071,7.026278
26.00178,73.25277,0.8492264,0.9798071,7.019818
26.05025,107.8372,0.8528057,0.9798071,7.019818
26.10096,109.1087,0.8545952,0.9799718,7.013359
26.15026,106.5657,0.8510159,0.9798071,7.013359
26.20025,97.28386,0.845647,0.9799718,7.013359
26.25138,88.63776,0.8429628,0.9799718,7.0069
26.30062,86.60338,0.8384888,0.9799718,7.0069
26.3515,86.73053,0.8286459,0.9798071,7.000441
26.40081,87.49342,0.8098552,0.9798071,7.000441
26.45091,79.73734,0.7856953,0.9798071,6.993981
26.5021,76.55863,0.7686942,0.9798071,6.993981
26.55066,74.52426,0.7507979,0.9798071,6.987523
26.60181,73.12562,0.7436396,0.9798071,6.987523
26.65029,82.53461,0.7391655,0.9798071,6.987523
26.70013,112.2874,0.7463241,0.9798071,6.987523
26.75125,110.5073,0.7561667,0.9798071,6.981063
26.79987,100.9712,0.7624306,0.9798071,6.981063
26.85196,97.9196,0.7642201,0.9799718,6.974604
26.90051,87.49342,0.7677994,0.9798071,6.974604
26.95024,87.49342,0.7722731,0.9798071,6.968145
27.00138,88.7649,0.7722731,0.9798071,6.968145
27.05012,84.44184,0.7713784,0.9798071,6.961686
27.10089,78.21156,0.7633253,0.9798071,6.961686
27.15095,76.17719,0.7579565,0.9798071,6.955227
27.20053,74.65141,0.7507979,0.9799718,6.955227
27.25153,75.66859,0.7427448,0.9798071,6.955227
27.29988,99.57254,0.7320072,0.9798071,6.948768
27.35088,111.7788,0.7239538,0.9798071,6.948768
27.39989,108.9815,0.7159007,0.9798071,6.942308
27.45051,99.95398,0.7033733,0.9799718,6.942308
27.50136,92.45221,0.6997943,0.9799718,6.935849
27.55016,87.49342,0.6908461,0.9798071,6.935849
27.60111,87.49342,0.6845826,0.9798071,6.935849
27.64989,88.00201,0.6720551,0.9799718,6.92939
27.7005,80.50024,0.6443163,0.9798071,6.922931
27.75093,75.66859,0.6291046,0.9799718,6.922931
27.80028,73.88851,0.6040503,0.9798071,6.922931
27.85153,72.99847,0.5772063,0.9799718,6.922931
27.90028,72.23557,0.578101,0.9799718,6.916471
27.95046,104.1499,0.5727322,0.9798071,6.910012
28.00097,110.6345,0.5772063,0.9799718,6.910012
28.05087,107.2015,0.5736269,0.9798071,6.910012
28.10161,101.3526,0.5682582,0.9799718,6.910012
28.15095,95.37663,0.5610995,0.9798071,6.903553
28.2007,89.90925,0.5628893,0.9798071,6.897094
28.252,88.5106,0.5628893,0.9801366,6.897094
28.30078,88.89205,0.5682582,0.9798071,6.897094
28.35128,82.40748,0.5763112,0.9798071,6.890635
28.40099,77.44867,0.5834699,0.9798071,6.890635
28.45049,74.14281,0.5861541,0.9798071,6.884176
28.50128,72.74417,0.5843646,0.9798071,6.884176
28.55078,75.54144,0.5861541,0.9798071,6.877717
28.60203,91.94361,0.5924177,0.9799718,6.877717
28.65051,109.7444,0.6022605,0.9798071,6.871257
28.7005,107.0743,0.6201568,0.9798071,6.871257
28.7511,100.9712,0.6353685,0.9798071,6.871257
28.80095,93.2151,0.6631073,0.9798071,6.871257
28.85152,90.41783,0.6747397,0.9799718,6.864799
28.90026,89.2735,0.6854773,0.9799718,6.858339
28.95107,89.0192,0.7015838,0.9798071,6.858339
29.00096,80.88168,0.7159007,0.9799718,6.85188
29.05021,77.44867,0.7302177,0.9798071,6.85188
29.1015,74.52426,0.7400602,0.9798071,6.85188
29.14997,73.76136,0.7472189,0.9798071,6.845421
29.20024,73.12562,0.7642201,0.9798071,6.845421
29.25129,89.0192,0.778537,0.9798071,6.845421
29.30098,109.6173,0.7991176,0.9799718,6.838962
29.35156,107.71,0.8134342,0.9796425,6.838962
29.40109,99.69969,0.8223823,0.9798071,6.838962
29.45048,93.59654,0.8304353,0.9798071,6.832502
29.50102,89.5278,0.8349094,0.9798071,6.832502
29.55044,88.89205,0.8384888,0.9798071,6.826044
29.60173,88.25631,0.8420681,0.9798071,6.826044
29.65052,81.00883,0.8474369,0.9798071,6.826044
29.70048,77.32152,0.8510159,0.9799718,6.819584
29.7512,75.54144,0.8554899,0.9798071,6.819584
29.80072,73.63422,0.859964,0.9896896,6.813125
29.85177,72.87133,0.859964,0.9898543,6.819584
29.90045,93.08795,0.8572798,0.9898543,6.806666
29.95031,109.363,0.8519109,0.9896896,6.806666
30.00098,106.3114,0.8447523,0.9898543,6.806666
30.05099,99.19109,0.8358042,0.9898543,6.800207
30.10157,90.16354,0.8304353,0.9898543,6.800207
30.15007,87.49342,0.8259616,0.9898543,6.800207
30.2002,87.87486,0.8179082,0.9898543,6.800207
30.25147,88.63776,0.8000123,0.9900191,6.800207
30.3002,81.39028,0.7803265,0.9898543,6.793747
30.35208,77.70296,0.7713784,0.9898543,6.793747
30.40064,76.05004,0.7660096,0.9898543,6.787289
30.45022,74.26996,0.7588512,0.9896896,6.780829
30.50147,78.84731,0.7445343,0.9900191,6.787289
30.55072,108.4729,0.7346914,0.9898543,6.780829
30.60104,109.1087,0.7239538,0.9898543,6.780829
30.65072,106.4386,0.7087421,0.9896896,6.77437
30.70047,99.06393,0.696215,0.9896896,6.77437
30.75122,91.43503,0.6908461,0.9898543,6.77437
30.80077,89.65494,0.6756344,0.9898543,6.767911
30.85154,88.63776,0.659528,0.9900191,6.767911
30.90101,88.12916,0.6470009,0.9898543,6.767911
30.95081,83.29751,0.6291046,0.9896896,6.767911
31.00164,76.55863,0.614788,0.9896896,6.761452
31.05097,74.90571,0.5942075,0.9896896,6.761452
31.10215,72.87133,0.5664683,0.9900191,6.761452
31.15047,73.37991,0.5557307,0.9898543,6.754992
31.20102,106.3114,0.5360453,0.9898543,6.754992
31.25112,109.1087,0.5270971,0.9900191,6.748534
31.29999,106.5657,0.510096,0.9898543,6.748534
31.35197,100.5897,0.477883,0.9898543,6.748534
31.40109,93.34225,0.4698296,0.9898543,6.742074
31.45112,90.67213,0.4573025,0.9898543,6.748534
31.50184,89.78209,0.4429856,0.9900191,6.742074
31.55017,89.90925,0.4268791,0.9898543,6.735615
31.60134,84.0604,0.4089832,0.9896896,6.735615
31.64997,77.32152,0.3830338,0.9898543,6.735615
31.70102,75.16,0.355295,0.9898543,6.735615
31.75101,73.12562,0.3123442,0.9896896,6.729156
31.79994,71.85413,0.2765523,0.9798071,6.729156
31.85201,71.59984,0.2121262,0.9798071,6.722697
31.90076,95.63092,0.1763343,0.9799718,6.722697
31.95056,110.1259,0.1477004,0.9798071,6.722697
32.00134,102.6241,0.1154875,0.9798071,6.722697
32.05072,96.77527,0.09669681,0.9798071,6.716238
32.10201,91.05358,0.09222274,0.9798071,6.716238
32.15044,89.14634,0.07074748,0.9799718,6.709778
32.20094,89.40065,0.04927222,0.9798071,6.709778
32.25185,90.16354,0.03585001,0.9799718,6.709778
32.30048,80.50024,0.03406052,0.9798071,6.709778
32.35188,76.94007,0.03495527,0.9798071,6.709778
32.40022,74.65141,0.06000985,0.9798071,6.70332
32.45082,72.61702,0.09938105,0.9798071,6.70332
32.501,72.61702,0.1342785,0.9798071,6.70332
32.55093,83.42466,0.1494902,0.9798071,6.70332
32.60101,108.3458,0.1870719,0.9798071,6.69686
32.65095,107.0743,0.2300224,0.9798071,6.69686
32.701,101.7341,0.2497082,0.9798071,6.69686
32.75129,96.90242,0.2622353,0.9798071,6.69686
32.80106,90.41783,0.2872899,0.9798071,6.69686
32.85098,88.7649,0.3078704,0.9796425,6.690401
32.90101,88.38345,0.3418728,0.9798071,6.690401
32.95098,87.87486,0.3687169,0.9798071,6.683942
33.00208,81.26313,0.3991403,0.9798071,6.690401
33.05071,76.17719,0.4394062,0.9798071,6.683942
33.102,74.14281,0.4751984,0.9898543,6.683942
33.15045,72.61702,0.4921997,0.9896896,6.677483
33.20042,72.36273,0.5074114,0.9896896,6.677483
33.25097,91.18073,0.5235178,0.9898543,6.677483
33.30075,109.1087,0.5396243,0.9898543,6.677483
33.35197,107.5829,0.5575205,0.9896896,6.671023
33.40054,99.57254,0.5745217,0.9898543,6.671023
33.4511,91.81647,0.6112087,0.9896896,6.671023
33.50199,89.14634,0.6326839,0.9898543,6.664565
33.55006,90.16354,0.6568438,0.9896896,6.664565
33.60188,89.90925,0.6765292,0.9896896,6.664565
33.65025,84.0604,0.6899514,0.9896896,6.664565
33.70029,76.17719,0.700689,0.9898543,6.658105
33.75111,74.52426,0.7123214,0.9896896,6.658105
33.80078,73.76136,0.7212695,0.9896896,6.658105
33.8516,73.88851,0.7284279,0.9898543,6.658105
33.90025,83.80611,0.7355865,0.9898543,6.651646
33.95101,108.3458,0.7418501,0.9896896,6.651646
34.00208,105.5485,0.7400602,0.9898543,6.651646
34.05017,100.2083,0.7382708,0.9898543,6.651646
34.10162,92.19792,0.7364812,0.9896896,6.645187
34.15023,86.98483,0.7329019,0.9896896,6.645187
34.20004,87.62056,0.7284279,0.9896896,6.645187
34.2517,89.0192,0.7194797,0.9898543,6.638728
34.30008,86.73053,0.7087421,0.9896896,6.645187
34.35184,79.73734,0.6971097,0.9898543,6.638728
34.40052,75.03284,0.6890566,0.9898543,6.638728
34.45095,72.61702,0.6756344,0.9898543,6.638728
34.50186,73.88851,0.6622126,0.9898543,6.638728
34.55028,99.69969,0.6613175,0.9898543,6.632268
34.60116,108.8544,0.6586332,0.9896896,6.632268
34.65052,108.7272,0.6505799,0.9898543,6.632268
34.70002,100.7169,0.6434216,0.9896896,6.632268
34.75158,93.46941,0.6389475,0.9898543,6.632268
34.80087,90.92643,0.6335787,0.9898543,6.62581
34.85143,90.16354,0.6299997,0.9898543,6.62581
34.9011,91.05358,0.618367,0.9898543,6.61935
34.95055,86.98483,0.6058398,0.9896896,6.62581
35.00186,83.67896,0.5852593,0.9898543,6.61935
35.05094,78.59301,0.5700476,0.9898543,6.62581
35.10207,75.28716,0.5557307,0.9898543,6.61935
35.15071,89.2735,0.5342554,0.9898543,6.612891
35.20066,112.5417,0.5217283,0.9900191,6.61935
35.25157,112.1602,0.5092012,0.9898543,6.61935
35.30024,107.9643,0.4832518,0.9896896,6.612891
35.35116,101.6069,0.4519337,0.9896896,6.612891
35.40068,95.63092,0.4358273,0.9898543,6.612891
35.45067,94.35944,0.3991403,0.9896896,6.606432
35.50182,94.10515,0.3740857,0.9898543,6.612891
35.55058,95.12233,0.3481364,0.9898543,6.606432
35.60181,86.34908,0.3195028,0.9896896,6.606432
35.65003,84.18755,0.2998171,0.9898543,6.606432
35.70042,77.44867,0.2684989,0.9898543,6.606432
35.75169,75.92289,0.2479184,0.9896896,6.606432
35.80015,82.40748,0.213916,0.9896896,6.599973
35.85119,108.6001,0.1906509,0.9898543,6.599973
35.90089,111.3974,0.1817031,0.9898543,6.599973
35.95065,109.4901,0.154859,0.9898543,6.593513
36.00143,101.7341,0.1378575,0.9898543,6.593513
36.05012,96.01237,0.1074344,0.9898543,6.593513
36.10132,94.10515,0.06537867,0.9898543,6.593513
36.15006,94.48659,0.02063832,0.9898543,6.593513
36.2002,94.2323,0.001847626,0.9898543,6.593513
36.25216,85.45904,-0.001731695,0.9900191,6.587055
36.30074,82.02603,0.0009525478,0.9896896,6.587055
36.35192,80.62739,0.003637121,0.9900191,6.593513
36.40071,76.17719,0.002742373,0.9898543,6.587055
36.45039,86.34908,-0.0008369473,0.9898543,6.587055
36.50123,105.5485,-0.006205763,0.9896896,6.587055
36.55094,112.1602,-0.009785083,0.9896896,6.587055
36.60219,108.3458,-0.01067983,0.9896896,6.587055
36.65052,104.9128,-0.00352119,0.9898543,6.580595
36.70046,97.9196,0.005426615,0.9896896,6.580595
36.75123,94.48659,0.02511238,0.9898543,6.574136
36.80123,93.72369,0.04211358,0.9896896,6.574136
36.85123,93.2151,0.06000985,0.9898543,6.574136
36.9004,86.34908,0.07880054,0.9898543,6.574136
36.95047,82.53461,0.09490699,0.9896896,6.574136
37.00185,80.37309,0.1154875,0.9896896,6.574136
37.05049,78.21156,0.1369628,0.9898543,6.574136
37.10168,75.03284,0.1566485,0.9898543,6.574136
37.15023,84.18755,0.1781238,0.9898543,6.567677
37.20094,111.0159,0.2353913,0.9898543,6.567677
37.25154,110.8888,0.2908689,0.9900191,6.567677
37.30045,107.2015,0.3293457,0.9896896,6.567677
37.3517,102.497,0.3615586,0.9896896,6.567677
37.4003,95.75809,0.3973505,0.9898543,6.567677
37.45123,95.50377,0.4358273,0.9898543,6.567677
37.50143,95.24948,0.4698296,0.9898543,6.561218
37.55085,94.74089,0.495779,0.9898543,6.567677
37.60204,85.20473,0.5217283,0.9898543,6.567677
37.65068,82.78893,0.5414141,0.9898543,6.561218
37.70022,81.13599,0.5557307,0.9898543,6.561218
37.75142,78.59301,0.5610995,0.9898543,6.561218
37.8011,80.62739,0.5655736,0.9896896,6.561218
37.85222,87.36626,0.5798905,0.9898543,6.561218
37.90072,110.1259,0.5942075,0.9896896,6.561218
37.95069,107.9643,0.6094192,0.9898543,6.561218
38.00218,101.8612,0.6201568,0.9898543,6.561218
38.05016,95.37663,0.6299997,0.9896896,6.554759
38.10117,93.72369,0.6299997,0.9896896,6.554759
38.15118,93.08795,0.6246309,0.9896896,6.554759
38.20054,92.19792,0.6138929,0.9896896,6.554759
38.25183,91.05358,0.5995763,0.9898543,6.554759
38.30093,83.67896,0.5798905,0.9898543,6.554759
38.35182,81.77173,0.5575205,0.9898543,6.554759
38.40121,79.10161,0.5387295,0.9898543,6.554759
38.45095,76.43149,0.5217283,0.9898543,6.554759
38.50161,82.53461,0.5020425,0.9900191,6.554759
38.5503,107.0743,0.4823571,0.9896896,6.5483
38.60191,108.7272,0.4492491,0.9898543,6.5483
38.65056,105.1671,0.4241949,0.9898543,6.5483
38.70018,98.30104,0.414352,0.9898543,6.5483
38.7513,93.34225,0.4062986,0.9898543,6.5483
38.8012,92.19792,0.3946662,0.9898543,6.5483
38.85217,91.68932,0.3821391,0.9900191,6.5483
38.90026,91.94361,0.3687169,0.9898543,6.5483
38.95009,84.82329,0.3499259,0.9896896,6.5483
39.00005,81.77173,0.3311352,0.9898543,6.5483
39.05117,79.3559,0.3212923,0.9898543,6.5483
39.1008,77.44867,0.3078704,0.9898543,6.541841
39.15078,74.65141,0.2989223,0.9898543,6.541841
39.2008,83.80611,0.2819211,0.9898543,6.541841
39.25022,108.7272,0.281026,0.9896896,6.541841
39.30196,109.9987,0.272973,0.9896896,6.541841
39.35065,106.5657,0.2398653,0.9898543,6.535381
39.40044,101.8612,0.2031784,0.9898543,6.535381
39.45025,95.63092,0.1888614,0.9896896,6.541841
39.50079,93.72369,0.1593328,0.9896896,6.541841
39.55194,93.85085,0.1459109,0.9896896,6.535381
39.60058,93.08795,0.1405421,0.9896896,6.535381
39.65116,84.82329,0.1530692,0.9898543,6.535381
39.70059,81.77173,0.2237589,0.9898543,6.535381
39.75064,79.86449,0.3114494,0.9896896,6.535381
39.80169,77.95727,0.3382935,0.9898543,6.535381
39.85029,76.94007,0.3481364,0.9898543,6.535381
39.90047,77.44867,0.3454521,0.9898543,6.528922
39.95021,96.52097,0.3356093,0.9898543,6.528922
40.00105,112.1602,0.3266611,0.9896896,6.528922
40.05229,108.7272,0.3087652,0.9898543,6.535381
40.10065,103.7684,0.2783418,0.9898543,6.528922
40.15017,98.30104,0.2631301,0.9896896,6.528922
40.20109,95.24948,0.2318119,0.9896896,6.528922
40.25008,94.2323,0.2022836,0.9898543,6.528922
40.30214,93.34225,0.1781238,0.9898543,6.528922
40.35041,87.23911,0.1691757,0.9896896,6.522463
40.40043,83.80611,0.1709655,0.9896896,6.528922
40.45121,81.77173,0.1781238,0.9896896,6.522463
40.50115,79.86449,0.1942302,0.9896896,6.522463
40.55221,77.44867,0.2049679,0.9898543,6.528922
40.60061,73.88851,0.2085472,0.9898543,6.522463
40.65017,74.77856,0.2112314,0.9898543,6.522463
40.70126,105.1671,0.2336014,0.9896896,6.522463
40.75121,111.5245,0.255077,0.9898543,6.522463
40.80216,105.4214,0.2649196,0.9898543,6.522463
40.85108,104.0227,0.2738677,0.9898543,6.522463
40.90065,96.26666,0.3033964,0.9898543,6.516004
40.95028,92.57936,0.3168182,0.9896896,6.516004
41.00129,92.32506,0.3481364,0.9896896,6.516004
41.05129,91.94361,0.3678221,0.9896896,6.516004
41.10124,85.84048,0.3839286,0.9896896,6.516004
41.15052,82.28033,0.4036144,0.9896896,6.516004
41.20016,80.75454,0.4286686,0.9896896,6.516004
41.25121,79.22876,0.4626713,0.9898543,6.516004
41.30114,76.43149,0.481462,0.9896896,6.509544
41.35126,72.23557,0.4993583,0.9896896,6.509544
41.40076,84.0604,0.5127802,0.9898543,6.509544
41.45067,109.363,0.5324659,0.9798071,6.509544
41.50076,109.2358,0.5440983,0.9799718,6.509544
41.55172,103.6413,0.5575205,0.9799718,6.509544
41.60058,97.28386,0.5825751,0.9798071,6.509544
41.65057,92.7065,0.6058398,0.9798071,6.509544
41.70028,91.18073,0.6201568,0.9798071,6.509544
41.7508,90.79928,0.6317892,0.9798071,6.509544
41.80207,89.5278,0.6496851,0.9798071,6.503086
41.85079,83.04321,0.659528,0.9796425,6.503086
41.90081,78.84731,0.6568438,0.9798071,6.503086
41.95078,78.08442,0.6487904,0.9798071,6.503086
42.00053,76.30434,0.6380528,0.9798071,6.503086
42.0512,74.39711,0.6228411,0.9798071,6.503086
42.10065,91.68932,0.6040503,0.9798071,6.496626
42.15069,109.7444,0.5870488,0.9799718,6.503086
42.20018,107.3286,0.5709424,0.9798071,6.496626
42.2512,102.2427,0.5575205,0.9798071,6.496626
42.3022,96.39381,0.551257,0.9798071,6.496626
42.35066,90.41783,0.5494671,0.9798071,6.496626
42.40089,89.5278,0.5458881,0.9798071,6.496626
42.45088,90.67213,0.53694,0.9799718,6.496626
42.50078,87.74771,0.5297817,0.9796425,6.496626
42.55165,84.3147,0.5235178,0.9798071,6.496626
42.6002,80.11879,0.5074114,0.9798071,6.496626
42.65127,78.59301,0.4939895,0.9798071,6.496626
42.7012,74.90571,0.4581973,0.9796425,6.490167
42.75119,72.74417,0.4385115,0.9798071,6.490167
42.80219,90.67213,0.4134572,0.9798071,6.490167
42.85019,104.1499,0.4036144,0.9796425,6.490167
42.90087,108.9815,0.3767703,0.9798071,6.490167
42.95027,104.0227,0.3615586,0.9798071,6.483708
43.00027,97.9196,0.3463469,0.9798071,6.483708
43.05128,92.57936,0.3409781,0.9798071,6.490167
43.1004,92.19792,0.3284506,0.9798071,6.490167
43.1509,92.45221,0.314134,0.9798071,6.483708
43.20042,93.34225,0.295343,0.9798071,6.483708
43.25017,84.18755,0.2819211,0.9796425,6.483708
43.3018,80.37309,0.2461289,0.9798071,6.483708
43.3511,79.86449,0.2219691,0.9798071,6.483708
43.40089,78.21156,0.1978095,0.9798071,6.483708
43.4508,72.61702,0.1620173,0.9896896,6.483708
43.50128,86.47623,0.1405421,0.9896896,6.483708
43.55219,112.6688,0.1128033,0.9898543,6.483708
43.60069,112.6688,0.07880054,0.9898543,6.477249
43.65017,109.1087,0.04658764,0.9898543,6.477249
43.70019,103.8956,0.01169018,0.9898543,6.477249
43.751,97.28386,-0.01336407,0.9896896,6.477249
43.80217,95.12233,-0.07242104,0.9896896,6.477249
43.85089,94.10515,-0.1180561,0.9900191,6.470789
43.90088,93.85085,-0.1314783,0.9896896,6.477249
43.95051,88.38345,-0.1440055,0.9896896,6.477249
44.00097,83.17036,-0.1681653,0.9896896,6.477249
44.05191,80.62739,-0.1824819,0.9898543,6.470789
44.10064,78.84731,-0.2048523,0.9898543,6.470789
44.15036,79.3559,-0.2263275,0.9896896,6.470789
44.20119,78.21156,-0.2558559,0.9898543,6.470789
44.25119,105.5485,-0.2791209,0.9898543,6.470789
44.30116,114.1946,-0.2853845,0.9898543,6.470789
44.35089,111.2702,-0.2818052,0.9896896,6.470789
44.40089,106.5657,-0.272857,0.9898543,6.470789
44.45068,100.2083,-0.2576457,0.9898543,6.464331
44.50068,94.99519,-0.246908,0.9896896,6.464331
44.55147,93.34225,-0.2370652,0.9896896,6.464331
44.60044,92.57936,-0.2146948,0.9896896,6.464331
44.65043,88.63776,-0.1967989,0.9898543,6.464331
44.70114,82.02603,-0.1806924,0.9898543,6.464331
44.75078,80.24594,-0.1690601,0.9898543,6.464331
44.80114,79.10161,-0.1493743,0.9898543,6.464331
44.85116,76.17719,-0.1198456,0.9898543,6.464331
44.90059,75.03284,-0.09031732,0.9898543,6.457871
44.9509,101.7341,-0.05005103,0.9898543,6.457871
45.00014,112.0331,0.04927222,0.9898543,6.457871
45.05114,109.6173,0.1924407,0.9896896,6.457871
45.10118,102.497,0.2917637,0.9898543,6.457871
45.15116,98.55534,0.3919817,0.9898543,6.457871
45.20069,92.45221,0.5020425,0.9898543,6.457871
45.25068,91.81647,0.5628893,0.9898543,6.457871
45.30202,91.94361,0.6174722,0.9898543,6.457871
45.35069,85.71333,0.6461061,0.9896896,6.457871
45.401,82.40748,0.6747397,0.9898543,6.457871
45.45093,80.62739,0.6944255,0.9898543,6.451412
45.50055,78.97446,0.7051631,0.9896896,6.457871
45.55168,77.06723,0.7230591,0.9900191,6.457871
45.60081,85.96764,0.7382708,0.9896896,6.451412
45.65079,110.7616,0.7490084,0.9896896,6.451412
45.70068,113.1774,0.7561667,0.9896896,6.451412
45.75111,109.8716,0.7695889,0.9898543,6.451412
45.80159,99.44539,0.7910641,0.9896896,6.444953
45.85064,96.77527,0.8062758,0.9896896,6.451412
45.90085,93.978,0.818803,0.9898543,6.444953
45.95088,93.85085,0.8268564,0.9896896,6.451412
46.0008,94.2323,0.8259616,0.9900191,6.451412
46.0518,84.3147,0.8223823,0.9898543,6.444953
46.10066,80.75454,0.8161187,0.9898543,6.444953
46.15067,78.97446,0.8018018,0.9898543,6.444953
46.20143,77.83012,0.7856953,0.9896896,6.444953
46.25113,87.62056,0.7803265,0.9896896,6.444953
46.30154,116.229,0.7704836,0.9896896,6.444953
46.35126,112.1602,0.759746,0.9898543,6.444953
46.40059,108.7272,0.751693,0.9898543,6.438494
46.45111,99.31824,0.745429,0.9898543,6.444953
46.50103,97.02956,0.7418501,0.9898543,6.438494
46.55242,95.24948,0.7329019,0.9896896,6.438494
46.60067,98.6825,0.7239538,0.9898543,6.438494
46.6505,98.42819,0.7176902,0.9898543,6.438494
46.70043,87.62056,0.7069526,0.9898543,6.438494
46.75092,85.20473,0.6988996,0.9908426,6.438494
46.80147,82.40748,0.6881619,0.999737,6.438494
46.85043,81.39028,0.6792138,0.999737,6.438494
46.90142,99.57254,0.6550539,0.999737,6.438494
46.95126,114.0675,0.6443163,0.999737,6.432034
47.00112,115.4661,0.6326839,0.999737,6.432034
47.05225,112.9231,0.6219463,0.9999016,6.432034
47.10064,104.9128,0.6013658,0.999737,6.432034
47.15067,100.844,0.5879439,0.9995722,6.432034
47.20135,98.30104,0.5870488,0.999737,6.432034
47.25111,99.44539,0.5906281,0.9999016,6.432034
47.30223,99.82683,0.5906281,0.9999016,6.432034
47.35112,89.2735,0.5897334,0.999737,6.432034
47.4006,87.11198,0.5798905,0.9999016,6.432034
47.45122,83.55181,0.5655736,0.9999016,6.432034
47.50071,81.89888,0.5423088,0.9999016,6.432034
47.55125,80.62739,0.5172542,0.999737,6.425576
47.60088,90.67213,0.4966737,0.999737,6.432034
47.65039,114.5761,0.495779,0.9995722,6.425576
47.7014,111.0159,0.4850414,0.9999016,6.425576
47.7514,108.3458,0.4707244,0.9999016,6.425576
47.80208,103.8956,0.4617766,0.999737,6.425576
47.85079,101.0983,0.4483544,0.9999016,6.425576
47.90067,99.06393,0.4241949,0.999737,6.425576
47.95139,96.01237,0.4062986,0.9999016,6.425576
48.00116,92.96081,0.3740857,0.999737,6.425576
48.05214,88.12916,0.3517157,0.9999016,6.419116
48.10091,85.45904,0.3490311,0.9898543,6.425576
48.15036,83.55181,0.3445571,0.9896896,6.425576
48.20047,81.26313,0.3454521,0.9898543,6.419116
48.25092,78.97446,0.3391882,0.9898543,6.419116
48.30207,85.71333,0.3132392,0.9896896,6.419116
48.35058,109.2358,0.3016065,0.9898543,6.425576
48.40135,112.5417,0.2881847,0.9898543,6.425576
48.45091,108.9815,0.2461289,0.9896896,6.419116
48.50091,105.4214,0.2166002,0.9898543,6.419116
48.55217,100.9712,0.2237589,0.9896896,6.419116
48.60039,95.50377,0.2246536,0.9896896,6.419116
48.65116,96.52097,0.2470236,0.9900191,6.419116
48.70078,95.24948,0.2702884,0.9898543,6.419116
48.75066,88.7649,0.295343,0.9898543,6.412657
48.80166,86.34908,0.3114494,0.9898543,6.419116
48.85118,84.569,0.3275559,0.9898543,6.419116
48.90066,83.04321,0.3418728,0.9898543,6.419116
48.95066,81.13599,0.355295,0.9896896,6.419116
49.00066,77.57583,0.3722962,0.9898543,6.412657
49.05203,83.04321,0.3866128,0.9898543,6.412657
49.10065,107.0743,0.4080884,0.9898543,6.412657
49.15056,110.7616,0.4295637,0.9896896,6.412657
49.20123,107.71,0.4528284,0.9896896,6.412657
49.2509,103.6413,0.4769883,0.9898543,6.412657
49.30217,98.9368,0.5056219,0.9898543,6.412657
49.35104,98.1739,0.5226231,0.9898543,6.412657
49.40066,97.28386,0.5458881,0.9898543,6.412657
49.45023,95.88522,0.5619946,0.9898543,6.412657
49.50119,88.25631,0.5673634,0.9898543,6.406198
49.55238,84.95044,0.5736269,0.9900191,6.412657
49.60124,83.29751,0.5807853,0.9896896,6.406198
49.65099,82.53461,0.5861541,0.9900191,6.406198
49.70061,80.24594,0.5924177,0.9896896,6.406198
49.75134,79.3559,0.5942075,0.9896896,6.406198
49.80226,76.68578,0.6013658,0.9896896,6.406198
49.85103,83.67896,0.6156827,0.9898543,6.406198
49.90103,109.6173,0.6264204,0.9898543,6.406198
49.95101,109.7444,0.6326839,0.9896896,6.399739
50.00097,104.9128,0.6246309,0.9898543,6.399739
50.05249,97.9196,0.6192617,0.9896896,6.399739
50.10049,95.37663,0.5995763,0.9898543,6.399739
50.15048,94.35944,0.5834699,0.9896896,6.399739
50.20098,93.34225,0.5789958,0.9898543,6.406198
50.25133,89.90925,0.5655736,0.9898543,6.399739
50.30188,84.44184,0.5539412,0.9898543,6.399739
50.35051,82.02603,0.5378348,0.9898543,6.399739
50.40051,80.24594,0.5172542,0.9896896,6.399739
50.45036,79.99165,0.4832518,0.9898543,6.399739
50.50115,78.46587,0.459092,0.9898543,6.399739
50.55215,99.06393,0.4456701,0.9896896,6.399739
50.601,111.3974,0.4340374,0.9896896,6.399739
50.65065,108.7272,0.4295637,0.9896896,6.399739
50.70048,102.497,0.4232998,0.9900191,6.399739
50.75034,99.06393,0.4277739,0.9898543,6.39328
50.80132,94.48659,0.4197208,0.9896896,6.39328
50.85065,92.96081,0.4045091,0.9898543,6.39328
50.90099,93.2151,0.3356093,0.9898543,6.39328
50.9503,89.14634,0.3311352,0.9898543,6.39328
51.00125,83.67896,0.3033964,0.9898543,6.39328
51.0521,79.61021,0.2604458,0.9898543,6.39328
51.10041,78.21156,0.2192848,0.9898543,6.39328
51.15024,77.44867,0.1879667,0.9898543,6.39328
51.2012,75.41429,0.1682809,0.9898543,6.386821
51.25108,77.32152,0.1566485,0.9898543,6.386821
51.30183,103.1327,0.1342785,0.9898543,6.386821
51.35122,110.8888,0.1190668,0.9898543,6.386821
51.40115,109.2358,0.0850641,0.9898543,6.386821
51.45084,105.1671,0.03316577,0.9898543,6.380362
51.50085,100.4626,0.01884882,0.9898543,6.386821
51.55136,93.2151,0.01169018,0.9898543,6.380362
51.60102,93.46941,0.003637121,0.9898543,6.386821
51.6509,94.2323,-0.01246933,0.9900191,6.386821
51.70062,87.23911,-0.01694339,0.9898543,6.380362
51.75162,84.82329,-0.03215509,0.9898543,6.386821
51.80234,81.39028,-0.04736679,0.9896896,6.380362
51.85093,79.73734,-0.06436799,0.9900191,6.380362
51.90137,78.46587,-0.09568613,0.9898543,6.380362
51.95109,75.16,-0.1314783,0.9896896,6.380362
52.00239,74.65141,-0.1780079,0.9898543,6.380362
52.05182,99.57254,-0.1994835,0.9898543,6.380362
52.10136,112.1602,-0.2012729,0.9896896,6.380362
52.15089,110.6345,-0.1905353,0.9896896,6.380362
52.20133,105.5485,-0.1797977,0.9898543,6.380362
52.25136,100.2083,-0.1654807,0.9898543,6.380362
52.30212,95.88522,-0.150269,0.9896896,6.380362
52.35089,93.59654,-0.1287938,0.9896896,6.380362
52.40063,93.59654,-0.1171614,0.9898543,6.373902
52.45062,89.2735,-0.09658088,0.9900191,6.373902
52.50144,87.11198,-0.08226392,0.9898543,6.373902
52.55211,81.26313,-0.05094578,0.9898543,6.380362
52.60102,80.37309,-0.02768102,0.9896896,6.373902
52.65101,78.46587,-0.01157458,0.9898543,6.373902
52.70041,76.81293,0.01616425,0.9896896,6.373902
52.75162,87.23911,0.05822002,0.9799718,6.373902
52.80157,112.9231,0.1163822,0.9798071,6.373902
52.85037,112.2874,0.1924407,0.9796425,6.373902
52.90077,107.4557,0.2622353,0.9798071,6.373902
52.95061,100.7169,0.3007118,0.9798071,6.373902
53.00191,97.53816,0.3660327,0.9798071,6.373902
53.05159,95.75809,0.4152468,0.9799718,6.367443
53.10138,95.37663,0.4438803,0.9798071,6.367443
53.15139,91.81647,0.4725142,0.9798071,6.367443
53.20137,87.49342,0.5074114,0.9796425,6.373902
53.25204,83.93326,0.5262024,0.9796425,6.367443
53.30138,81.00883,0.5458881,0.9798071,6.367443
53.35138,79.86449,0.5602047,0.9798071,6.367443
53.40141,77.57583,0.5772063,0.9798071,6.367443
53.45068,88.00201,0.5968917,0.9799718,6.367443
53.50159,112.796,0.6165775,0.9799718,6.367443
53.5516,111.2702,0.6299997,0.9798071,6.367443
53.60134,106.4386,0.6389475,0.9798071,6.360984
53.65096,101.2255,0.637158,0.9798071,6.367443
53.70031,95.63092,0.6255256,0.9799718,6.360984
53.7524,94.74089,0.600471,0.9798071,6.360984
53.80219,95.37663,0.5718375,0.9798071,6.360984
53.85092,94.99519,0.5324659,0.9799718,6.367443
53.90073,86.22193,0.4904101,0.9798071,6.360984
53.95113,84.44184,0.4617766,0.9796425,6.360984
54.00222,81.89888,0.4331427,0.9798071,6.360984
54.05171,79.48306,0.3982455,0.9799718,6.360984
54.10072,87.87486,0.3660327,0.9798071,6.360984
54.15135,107.5829,0.3543999,0.9796425,6.360984
54.20083,114.1946,0.3526104,0.9798071,6.360984
54.25183,112.0331,0.3517157,0.9798071,6.360984
54.30207,102.8784,0.3391882,0.9799718,6.367443
54.35136,96.64812,0.3212923,0.9798071,6.360984
54.40113,95.37663,0.277447,0.9798071,6.360984
54.45053,96.52097,0.2013885,0.9798071,6.360984
54.5023,97.28386,0.1405421,0.9796425,6.354525
54.55159,88.89205,0.08595917,0.9798071,6.354525
54.60035,86.85767,0.03585001,0.9798071,6.354525
54.65121,84.0604,0.008111188,0.9798071,6.354525
54.70057,81.51743,-0.02857577,0.9798071,6.354525
54.752,79.3559,-0.05720967,0.9798071,6.354525
54.80135,83.29751,-0.09479138,0.9796425,6.354525
54.85118,108.7272,-0.14669,0.9799718,6.354525
54.90105,113.3046,-0.2084313,0.9798071,6.354525
54.95071,111.0159,-0.2719623,0.9796425,6.354525
55.00153,105.5485,-0.2997015,0.9798071,6.354525
55.05207,100.844,-0.3014909,0.9798071,6.354525
55.10083,98.30104,-0.3050703,0.9798071,6.348066
55.15149,97.66531,-0.3104391,0.9798071,6.348066
55.20121,97.66531,-0.3211767,0.9798071,6.348066
55.25248,90.16354,-0.3748648,0.9798071,6.348066
55.30233,87.87486,-0.5046112,0.9796425,6.354525
55.35087,84.82329,-0.5931968,0.9796425,6.348066
55.40049,82.53461,-0.6683602,0.9798071,6.348066
55.45046,80.88168,-0.7641041,0.9799718,6.354525
55.50158,92.83366,-0.8204769,0.9799718,6.348066
55.55167,111.6517,-0.8356886,0.9798071,6.354525
55.60112,113.8132,-0.8267404,0.9796425,6.348066
55.651,111.906,-0.802581,0.9798071,6.348066
55.70092,108.7272,-0.7837899,0.9798071,6.348066
55.75159,101.8612,-0.7381551,0.9798071,6.341606
55.8017,98.80965,-0.6943095,0.9798071,6.348066
55.85068,98.42819,-0.6719396,0.9798071,6.348066
55.90137,97.15671,-0.6567279,0.9798071,6.348066
55.95137,89.40065,-0.6155668,0.9796425,6.341606
56.00235,86.73053,-0.5905126,0.9798071,6.348066
56.05212,83.42466,-0.5609839,0.9798071,6.341606
56.10112,81.89888,-0.3811284,0.9898543,6.348066
56.15133,81.26313,-0.2880687,0.9898543,6.341606
56.20095,79.61021,-0.2603299,0.9896896,6.341606
56.2522,107.4557,-0.209326,0.9898543,6.341606
56.3022,113.1774,-0.1547431,0.9898543,6.341606
56.35045,111.7788,-0.1082133,0.9896896,6.341606
56.4013,108.0915,-0.0563146,0.9898543,6.341606
56.45049,102.6241,-0.02052271,0.9898543,6.341606
56.50195,97.53816,0.03763951,0.9898543,6.341606
56.55132,96.13953,0.1074344,0.9898543,6.341606
56.60066,96.39381,0.1638068,0.9896896,6.341606
56.65091,91.43503,0.217495,0.9898543,6.341606
56.70101,86.22193,0.272973,0.9898543,6.335147
56.75167,83.42466,0.3293457,0.9898543,6.341606
56.80167,81.89888,0.3615586,0.9898543,6.341606
56.85034,81.64457,0.3794545,0.9900191,6.341606
56.90034,79.22876,0.4054039,0.9898543,6.335147
56.95134,93.72369,0.436722,0.9898543,6.341606
57.00159,112.0331,0.4662507,0.9898543,6.335147
57.05202,110.1259,0.5038323,0.9898543,6.335147
57.10044,102.7513,0.5351505,0.9896896,6.341606
57.15096,97.15671,0.5745217,0.9896896,6.335147
57.20071,95.12233,0.5825751,0.9898543,6.335147
57.25158,94.99519,0.5798905,0.9898543,6.335147
57.30151,94.86804,0.5619946,0.9896896,6.328688
57.35063,88.7649,0.5288866,0.9898543,6.335147
57.40044,85.33189,0.4805673,0.9898543,6.335147
57.45114,83.55181,0.4358273,0.9898543,6.335147
57.50211,81.39028,0.4000351,0.9898543,6.328688
57.55217,79.61021,0.3821391,0.9898543,6.328688
57.60096,83.17036,0.3660327,0.9896896,6.335147
57.65082,110.1259,0.3400833,0.9898543,6.328688
57.70129,111.5245,0.314134,0.9900191,6.328688
57.75216,106.5657,0.2962377,0.9898543,6.328688
57.80181,99.06393,0.2881847,0.9896896,6.328688
57.85036,95.63092,0.281026,0.9898543,6.328688
57.90136,93.46941,0.2568665,0.9896896,6.328688
57.95075,94.2323,0.2336014,0.9898543,6.328688
58.00206,95.37663,0.2067574,0.9898543,6.328688
58.05231,87.23911,0.1897562,0.9898543,6.322229
58.10084,83.80611,0.1655967,0.9898543,6.328688
58.15041,81.39028,0.1485951,0.9898543,6.328688
58.20079,79.3559,0.1208563,0.9898543,6.322229
58.25133,78.97446,0.08595917,0.9900191,6.322229
58.30229,96.77527,0.01437475,0.9898543,6.328688
58.3504,113.8132,-0.02320696,0.9898543,6.328688
58.40082,111.3974,-0.0697368,0.9898543,6.322229
58.45044,106.3114,-0.1108978,0.9900191,6.322229
58.50227,101.2255,-0.1386366,0.9898543,6.322229
58.5514,96.52097,-0.1565326,0.9898543,6.322229
58.60098,95.24948,-0.1797977,0.9896896,6.322229
58.65095,95.50377,-0.1878507,0.9898543,6.322229
58.7007,94.99519,-0.1860612,0.9898543,6.322229
58.75143,86.73053,-0.1923248,0.9898543,6.322229
58.80156,83.29751,-0.2012729,0.9898543,6.322229
58.85143,82.40748,-0.2146948,0.9898543,6.31577
58.90143,79.99165,-0.2352753,0.9896896,6.322229
58.95102,78.46587,-0.309544,0.9896896,6.31577
59.00156,86.73053,-0.4885047,0.9898543,6.31577
59.05181,113.8132,-0.5529305,0.9898543,6.31577
59.10056,113.4317,-0.6003551,0.9898543,6.31577
59.15064,109.363,-0.6629914,0.9896896,6.31577
59.20155,103.0055,-0.6799929,0.9896896,6.31577
59.25201,97.28386,-0.6764136,0.9898543,6.31577
59.30254,95.12233,-0.6764136,0.9896896,6.31577
59.35114,94.48659,-0.6683602,0.9898543,6.31577
59.40055,90.54498,-0.6576226,0.9896896,6.31577
59.45055,84.95044,-0.6459902,0.9898543,6.31577
59.50179,84.569,-0.6334631,0.9898543,6.30931
59.55188,81.39028,-0.6191461,0.9896896,6.30931
59.6013,79.61021,-0.5985656,0.9896896,6.31577
59.65131,76.68578,-0.5896175,0.9898543,6.30931
59.70103,76.30434,-0.5797749,0.9898543,6.30931
59.75202,108.4729,-0.5565099,0.9898543,6.30931
59.80159,111.7788,-0.5242969,0.9896896,6.30931
59.85132,111.0159,-0.4741881,0.9900191,6.30931
59.90084,101.7341,-0.4222895,0.9900191,6.30931
59.95086,95.63092,-0.3480208,0.9898543,6.30931
60.00228,93.85085,-0.2549611,0.9898543,6.30931
60.05235,93.72369,-0.2021677,0.9898543,6.302852
60.10055,93.59654,-0.1708495,0.9898543,6.30931
60.1506,86.09478,-0.1377419,0.9896896,6.30931
60.20035,84.44184,-0.09747563,0.9898543,6.30931
60.25182,80.24594,-0.0697368,0.9898543,6.302852
60.30186,79.22876,-0.05899917,0.9898543,6.302852
60.35057,78.21156,-0.05184086,0.9896896,6.302852
60.40102,74.77856,-0.04199798,0.9898543,6.302852
60.45083,101.4798,-0.02947052,0.9799718,6.302852
60.50159,111.7788,-0.00352119,0.9798071,6.302852
60.55159,107.3286,0.05374596,0.9799718,6.302852
60.60085,98.1739,0.1002758,0.9796425,6.302852
60.65107,94.2323,0.1405421,0.9799718,6.302852
60.70107,90.92643,0.1566485,0.9799718,6.302852
60.75234,92.83366,0.158438,0.9798071,6.302852
60.80256,91.56216,0.1450161,0.9798071,6.296392
60.85113,85.96764,0.1226458,0.9799718,6.296392
60.90139,83.80611,0.09759156,0.9798071,6.296392
60.9513,80.24594,0.06179934,0.9798071,6.296392
61.00256,78.08442,0.009005936,0.9799718,6.296392
61.05255,76.30434,-0.0393134,0.9798071,6.296392
61.10104,80.24594,-0.07063155,0.9898543,6.296392
61.15081,109.2358,-0.08673799,0.9896896,6.296392
61.20129,109.8716,-0.1117926,0.9896896,6.296392
61.25259,106.6929,-0.1207407,0.9900191,6.296392
61.30202,97.15671,-0.1261095,0.9896896,6.296392
61.3508,91.43503,-0.1305833,0.9898543,6.296392
61.40054,91.56216,-0.1493743,0.9900191,6.296392
61.45087,92.57936,-0.1556378,0.9900191,6.296392
61.50172,93.34225,-0.1762184,0.9900191,6.289933
61.55171,85.33189,-0.1851665,0.9898543,6.289933
61.60081,82.28033,-0.1950094,0.9898543,6.296392
61.65067,80.75454,-0.2066418,0.9900191,6.289933
61.70108,77.06723,-0.2263275,0.9896896,6.289933
61.75218,75.79574,-0.2406441,0.9898543,6.289933
61.80155,94.99519,-0.2755416,0.9898543,6.289933
61.85092,109.8716,-0.2844898,0.9900191,6.289933
61.90093,110.6345,-0.2782258,0.9898543,6.289933
61.9505,104.4042,-0.2612247,0.9898543,6.289933
62.00163,98.80965,-0.2343806,0.9898543,6.283474
62.05146,93.08795,-0.2290118,0.9900191,6.289933
62.10159,92.32506,-0.2316963,0.9898543,6.283474
62.15158,92.7065,-0.242434,0.9898543,6.289933
62.2005,92.96081,-0.2621194,0.9896896,6.283474
62.25191,84.3147,-0.2755416,0.9896896,6.283474
62.3023,81.26313,-0.2934375,0.9900191,6.283474
62.35095,81.13599,-0.3274403,0.9896896,6.283474
62.40117,76.55863,-0.3703908,0.9898543,6.283474
62.45045,74.65141,-0.4115518,0.9898543,6.283474
62.50258,92.57936,-0.5278763,0.9896896,6.283474
62.55199,112.796,-0.6236202,0.9896896,6.283474
62.60104,113.4317,-0.6612019,0.9898543,6.283474
62.65158,109.7444,-0.6835719,0.9898543,6.283474
62.70145,103.2598,-0.6960993,0.9898543,6.277015
62.7514,98.1739,-0.6808877,0.9898543,6.277015
62.80216,95.24948,-0.665676,0.9896896,6.277015
62.85083,94.86804,-0.6522537,0.9901838,6.277015
62.90081,94.86804,-0.6406214,0.9898543,6.277015
62.95083,87.11198,-0.6271995,0.9896896,6.277015
63.00192,84.44184,-0.6012502,0.9898543,6.277015
63.05158,81.00883,-0.5931968,0.9898543,6.277015
63.10058,78.59301,-0.5860385,0.9900191,6.277015
63.15058,77.44867,-0.5770903,0.9898543,6.277015
63.20158,80.88168,-0.5502463,0.9898543,6.277015
63.25258,109.363,-0.5180334,0.9898543,6.277015
63.30257,114.0675,-0.4902945,0.9898543,6.270555
63.35083,110.253,-0.4536076,0.9898543,6.277015
63.40075,101.7341,-0.4034984,0.9898543,6.277015
63.45153,96.64812,-0.3605479,0.9898543,6.270555
63.50157,93.2151,-0.3158079,0.9900191,6.277015
63.55225,94.48659,-0.2567506,0.9896896,6.270555
63.60103,94.61374,-0.2146948,0.9898543,6.270555
63.65057,88.25631,-0.2012729,0.9898543,6.270555
63.70082,83.67896,-0.1842718,0.9898543,6.270555
63.75205,81.77173,-0.1744289,0.9898543,6.270555
63.80208,80.50024,-0.1627965,0.9896896,6.270555
63.85157,79.86449,-0.1592172,0.9900191,6.270555
63.90157,80.88168,-0.1404261,0.9898543,6.270555
63.95057,101.7341,-0.1153719,0.9896896,6.270555
64.00195,114.3218,-0.08763274,0.9896896,6.270555
64.05231,108.6001,-0.0715263,0.9896896,6.270555
64.10106,98.9368,-0.06078866,0.9898543,6.270555
64.15106,93.59654,-0.02141746,0.9898543,6.264096
64.20106,91.94361,-0.002626442,0.9898543,6.270555
64.25164,94.86804,0.02958645,0.9898543,6.270555
64.30157,94.74089,0.03227069,0.9898543,6.264096
64.35138,86.22193,0.01348,0.9898543,6.264096
64.40083,83.67896,-0.01783814,0.9896896,6.264096
64.45058,81.89888,-0.04020815,0.9898543,6.264096
64.50145,80.11879,-0.07421087,0.9896896,6.264096
64.55236,78.21156,-0.09121206,0.9898543,6.264096
64.60077,89.65494,-0.1117926,0.9898543,6.264096
64.65057,112.9231,-0.1162666,0.9898543,6.264096
64.70122,111.0159,-0.1198456,0.9898543,6.257637
64.7523,101.4798,-0.123425,0.9896896,6.257637
64.80245,96.01237,-0.1243197,0.9896896,6.257637
64.85109,93.34225,-0.1270043,0.9898543,6.264096
64.90082,93.46941,-0.1305833,0.9896896,6.257637
64.95081,94.99519,-0.1359524,0.9896896,6.257637
65.00204,93.978,-0.1493743,0.9898543,6.257637
65.05209,85.84048,-0.1574277,0.9898543,6.257637
65.10101,82.40748,-0.1780079,0.9900191,6.257637
65.15108,80.37309,-0.1976936,0.9898543,6.257637
65.20103,78.72016,-0.2236429,0.9898543,6.257637
65.25205,84.82329,-0.2603299,0.9898543,6.257637
65.30238,111.7788,-0.2862792,0.9898543,6.257637
65.35065,114.9575,-0.287174,0.9898543,6.257637
65.40148,109.4901,-0.2755416,0.9896896,6.257637
65.45087,103.0055,-0.2612247,0.9900191,6.251178
65.50265,99.06393,-0.2576457,0.9896896,6.251178
65.55214,96.01237,-0.2594352,0.9896896,6.251178
65.60165,96.13953,-0.2656987,0.9898543,6.251178
65.65122,96.52097,-0.2755416,0.9900191,6.251178
65.70098,89.14634,-0.2889635,0.9898543,6.251178
65.75194,84.44184,-0.2988064,0.9898543,6.251178
65.80169,83.42466,-0.2755416,0.9898543,6.251178
65.85077,82.78893,-0.2665935,0.9898543,6.251178
65.9014,79.61021,-0.2665935,0.9898543,6.251178
65.95073,85.20473,-0.2818052,0.9898543,6.257637
66.00202,114.0675,-0.3113338,0.9896896,6.251178
66.05162,114.7032,-0.3480208,0.9898543,6.251178
66.10077,104.7856,-0.3623374,0.9898543,6.251178
66.15141,101.2255,-0.3793389,0.9898543,6.251178
66.20061,98.04675,-0.387392,0.9898543,6.251178
66.25152,96.01237,-0.4249737,0.9898543,6.251178
66.30216,96.39381,-0.4545023,0.9898543,6.244719
66.35063,96.52097,-0.4867152,0.9898543,6.244719
66.40168,84.82329,-0.5126646,0.9898543,6.244719
66.45122,81.64457,-0.5395086,0.9898543,6.244719
66.50242,80.50024,-0.5788798,0.9898543,6.244719
66.55181,79.22876,-0.6110927,0.9896896,6.244719
66.60124,77.19438,-0.6263044,0.9898543,6.244719
66.65085,79.73734,-0.6236202,0.9900191,6.244719
66.70134,111.906,-0.6146721,0.9898543,6.244719
66.75215,113.3046,-0.5976709,0.9896896,6.244719
66.80206,107.9643,-0.5851437,0.9898543,6.244719
66.85074,104.4042,-0.573511,0.9898543,6.244719
66.90116,97.41101,-0.546667,0.9898543,6.244719
66.95101,96.26666,-0.506401,0.9896896,6.244719
67.0021,95.88522,-0.4786618,0.9896896,6.244719
67.05174,94.48659,-0.4312373,0.9898543,6.244719
67.10152,86.60338,-0.387392,0.9898543,6.23826
67.15125,85.71333,-0.3659167,0.9898543,6.244719
67.20126,84.18755,-0.3337038,0.9898543,6.23826
67.25185,80.50024,-0.2916481,0.9898543,6.244719
67.30148,78.97446,-0.2755416,0.9896896,6.244719
67.35152,78.59301,-0.2361701,0.9896896,6.23826
67.40136,109.7444,-0.1967989,0.9896896,6.23826
67.45081,113.5589,-0.1717443,0.9898543,6.23826
67.50153,108.4729,-0.150269,0.9898543,6.23826
67.55253,102.6241,-0.1386366,0.9898543,6.23826
67.60076,98.55534,-0.1216355,0.9896896,6.244719
67.65047,96.64812,-0.09210681,0.9898543,6.23826
67.70168,96.26666,-0.05363035,0.9896896,6.23826
67.75153,96.26666,-0.01962764,0.9900191,6.23826
67.80254,90.29069,-0.0008369473,0.9898543,6.23826
67.85102,88.89205,0.01258526,0.9898543,6.23826
67.90163,83.80611,0.01795407,0.9898543,6.23826
67.951,83.04321,0.01974357,0.9898543,6.23826
68.00173,80.88168,0.01795407,0.9898543,6.23826
68.05161,81.51743,0.009005936,0.9900191,6.23826
68.10126,109.8716,5.780023e-05,0.9898543,6.23826
68.15101,112.9231,-0.01873289,0.9898543,6.23826
68.20104,106.1843,-0.05184086,0.9898543,6.23826
68.25227,99.95398,-0.08405375,0.9898543,6.23826
68.3018,95.75809,-0.1001602,0.9898543,6.2318
68.35167,94.35944,-0.1216355,0.9898543,6.2318
68.40152,97.28386,-0.1314783,0.9896896,6.2318
68.4515,96.39381,-0.1413212,0.9898543,6.2318
68.50259,86.85767,-0.1520589,0.9896896,6.2318
68.55226,84.569,-0.1744289,0.9896896,6.2318
68.6005,82.53461,-0.1905353,0.9898543,6.23826
68.65052,81.13599,-0.2111158,0.9900191,6.23826
68.70172,79.48306,-0.2325911,0.9898543,6.2318
68.75252,103.0055,-0.2612247,0.9898543,6.2318
68.80251,114.1946,-0.3202816,0.9896896,6.2318
68.85109,114.3218,-0.3847077,0.9898543,6.2318
68.90051,102.6241,-0.3999191,0.9898543,6.2318
68.9505,96.90242,-0.4178154,0.9898543,6.2318
69.00175,93.85085,-0.4312373,0.9898543,6.2318
69.05226,95.24948,-0.4598712,0.9896896,6.2318
69.10163,95.63092,-0.4992424,0.9898543,6.2318
69.15131,91.94361,-0.5484568,0.9898543,6.2318
69.20131,84.3147,-0.6236202,0.9898543,6.225342
69.25247,81.26313,-0.7381551,0.9898543,6.225342
69.3023,80.11879,-0.810634,0.9896896,6.2318
69.35104,78.46587,-0.8732703,0.9898543,6.2318
69.40051,78.46587,-0.9090625,0.9898543,6.2318
69.45162,88.5106,-0.9144313,0.9898543,6.225342
69.50259,113.5589,-0.9036937,0.9898543,6.2318
69.55197,111.5245,-0.8947455,0.9898543,6.2318
69.601,105.4214,-0.8902715,0.9896896,6.225342
69.6505,102.3698,-0.888482,0.9898543,6.225342
69.7005,95.12233,-0.8893767,0.9898543,6.225342
69.75265,95.12233,-0.9001144,0.9898543,6.225342
69.80184,95.63092,-0.9206949,0.9896896,6.225342
69.85162,92.45221,-0.9815416,0.9898543,6.225342
69.90164,85.20473,-1.228507,0.9898543,6.225342
69.95112,83.17036,-1.391361,0.9898543,6.225342
70.00249,81.51743,-1.453998,0.9896896,6.218882
70.05247,80.11879,-1.518424,0.9896896,6.225342
70.10062,77.19438,-1.612378,0.9798071,6.225342
70.15087,86.73053,-1.637433,0.9798071,6.225342
70.20147,112.796,-1.641906,0.9799718,6.225342
70.25237,111.7788,-1.635643,0.9799718,6.218882
70.30161,107.2015,-1.604325,0.9798071,6.225342
70.35139,100.9712,-1.53632,0.9798071,6.225342
70.40108,97.15671,-1.484421,0.9798071,6.225342
70.45083,95.12233,-1.451313,0.9799718,6.218882
70.50158,94.74089,-1.418205,0.9798071,6.218882
70.55238,94.2323,-1.385098,0.9798071,6.218882
70.60085,85.84048,-1.348411,0.9798071,6.212423
70.65124,82.53461,-1.32783,0.9799718,6.218882
70.70099,80.50024,-1.301881,0.9799718,6.218882
70.75176,78.33871,-1.254457,0.9798071,6.218882
70.80152,75.92289,-1.220454,0.9798071,6.218882
70.85088,73.37991,-1.113078,0.9799718,6.218882
70.90071,109.7444,-0.9654352,0.9799718,6.218882
70.95151,112.2874,-0.8875872,0.9798071,6.212423
71.00247,108.9815,-0.7820004,0.9798071,6.218882
71.05228,102.1155,-0.6773083,0.9798071,6.212423
71.10086,96.52097,-0.6030397,0.9798071,6.212423
71.15087,93.46941,-0.5126646,0.9798071,6.218882
71.20061,93.72369,-0.4196049,0.9798071,6.212423
71.25247,94.35944,-0.3301245,0.9798071,6.212423
71.30236,87.87486,-0.2576457,0.9799718,6.212423
71.35061,84.44184,-0.2299065,0.9798071,6.212423
71.40057,81.39028,-0.2084313,0.9798071,6.212423
71.45147,79.61021,-0.1753236,0.9798071,6.212423
71.50195,77.06723,-0.1565326,0.9798071,6.212423
71.55203,74.01566,-0.14669,0.9798071,6.212423
71.60077,89.14634,-0.1332678,0.9798071,6.212423
71.65076,110.3802,-0.09837037,0.9798071,6.212423
71.70086,107.3286,-0.04915629,0.9799718,6.212423
71.75153,97.9196,-0.02231221,0.9798071,6.212423
71.80254,91.43503,0.01616425,0.9798071,6.212423
71.85125,90.16354,0.01795407,0.9799718,6.205964
71.90157,90.41783,0.004531868,0.9798071,6.212423
71.95126,91.30788,-0.01962764,0.9799718,6.205964
72.00228,84.0604,-0.04378747,0.9798071,6.205964
72.05219,79.86449,-0.09210681,0.9798071,6.205964
72.10076,79.22876,-0.105529,0.9798071,6.212423
72.1517,75.28716,-0.1270043,0.9798071,6.205964
72.20156,72.48988,-0.1368472,0.9799718,6.205964
72.25156,100.5897,-0.150269,0.9798071,6.205964
72.30257,111.7788,-0.1744289,0.9798071,6.205964
72.35097,110.1259,-0.1941146,0.9796425,6.205964
72.40136,96.77527,-0.2138001,0.9799718,6.205964
72.45098,91.18073,-0.2343806,0.9799718,6.199505
72.50223,88.63776,-0.2486975,0.9799718,6.205964
72.55247,91.68932,-0.2791209,0.9799718,6.199505
72.60061,92.19792,-0.3435467,0.9798071,6.205964
72.6515,92.57936,-0.4419749,0.9798071,6.205964
72.7015,82.02603,-0.5332451,0.9799718,6.205964
72.75246,81.00883,-0.6057239,0.9798071,6.199505
72.80223,74.52426,-0.6782031,0.9798071,6.199505
72.85098,75.16,-0.8222663,0.9799718,6.199505
72.90087,77.70296,-0.9162208,0.9798071,6.199505
72.95169,107.71,-0.9448547,0.9798071,6.199505
73.00272,111.7788,-0.9645401,0.9798071,6.199505
73.05271,108.4729,-0.9851207,0.9798071,6.199505
73.10148,98.80965,-1.010175,0.9798071,6.199505
73.15098,94.99519,-1.042388,0.9798071,6.199505
73.20158,92.57936,-1.110393,0.9798071,6.199505
73.25287,93.72369,-1.211506,0.9798071,6.193046
73.30164,94.99519,-1.324251,0.9799718,6.199505
73.35125,85.58618,-1.414627,0.9798071,6.193046
73.40087,83.80611,-1.550637,0.9798071,6.193046
73.45085,82.40748,-1.7636,0.9799718,6.199505
73.50198,80.24594,-1.955088,0.9798071,6.193046
73.5516,79.3559,-2.012355,0.9796425,6.193046
73.60098,96.64812,-2.068728,0.9798071,6.193046
73.65081,115.8476,-2.089308,0.9798071,6.193046
73.70072,113.3046,-2.111678,0.9799718,6.193046
73.7522,106.9472,-2.139417,0.9798071,6.193046
73.80252,101.2255,-2.175209,0.9798071,6.193046
73.85101,98.80965,-2.205633,0.9799718,6.193046
73.9008,97.02956,-2.24053,0.9798071,6.193046
73.95087,97.79247,-2.287955,0.9798071,6.186586
74.00285,92.57936,-2.312114,0.9798071,6.193046
74.0521,87.11198,-2.33359,0.9798071,6.186586
74.10163,86.60338,-2.347907,0.9799718,6.193046
74.15125,83.80611,-2.446335,0.9798071,6.186586
74.20126,79.22876,-2.598452,0.9798071,6.186586
74.25234,82.78893,-2.60561,0.9798071,6.186586
74.3017,107.8372,-2.585924,0.9798071,6.186586
74.35161,114.8304,-2.550132,0.9798071,6.186586
74.40122,112.0331,-2.511656,0.9798071,6.186586
74.45155,104.1499,-2.468705,0.9798071,6.186586
74.50269,100.4626,-2.371171,0.9799718,6.186586
74.55235,97.53816,-2.310325,0.9798071,6.186586
74.60069,96.52097,-2.255742,0.9798071,6.186586
74.65144,96.64812,-2.123311,0.9798071,6.186586
74.70122,91.05358,-1.941666,0.9798071,6.186586
74.75201,86.47623,-1.756441,0.9798071,6.180127
74.80172,84.95044,-1.616852,0.9798071,6.186586
74.85184,81.26313,-1.424469,0.9798071,6.186586
74.90173,79.48306,-1.340358,0.9798071,6.180127
74.95174,92.19792,-1.200768,0.9798071,6.180127
75.00201,114.5761,-1.017334,0.9798071,6.180127
75.05193,112.6688,-0.8786391,0.9799718,6.186586
75.10122,106.5657,-0.7676834,0.9798071,6.180127
75.15121,100.4626,-0.6450955,0.9798071,6.180127
75.20129,93.46941,-0.5582993,0.9798071,6.180127
75.2522,96.64812,-0.4750828,0.9799718,6.180127
75.30161,97.66531,-0.3963401,0.9799718,6.180127
75.35146,90.16354,-0.3292298,0.9798071,6.180127
75.40096,88.12916,-0.2665935,0.9798071,6.180127
75.45068,84.95044,-0.2486975,0.9798071,6.180127
75.50246,82.53461,-0.2129053,0.9798071,6.180127
75.55198,80.88168,-0.2039572,0.9798071,6.180127
75.60121,86.47623,-0.2030624,0.9799718,6.173668
75.65125,113.4317,-0.2048523,0.9799718,6.173668
75.70096,112.0331,-0.2129053,0.9798071,6.180127
75.75225,106.6929,-0.2290118,0.9798071,6.180127
75.80254,97.9196,-0.2397494,0.9798071,6.180127
75.85066,94.86804,-0.2531716,0.9799718,6.173668
75.90145,94.48659,-0.2656987,0.9799718,6.173668
75.95148,95.37663,-0.2764364,0.9798071,6.173668
76.00246,95.12233,-0.3238609,0.9798071,6.180127
76.05225,87.23911,-0.3489155,0.9798071,6.173668
76.10072,83.17036,-0.3623374,0.9798071,6.173668
76.15073,80.11879,-0.3820232,0.9798071,6.173668
76.20179,79.86449,-0.406183,0.9798071,6.173668
76.25273,81.77173,-0.4419749,0.9798071,6.173668
76.30255,115.2118,-0.4974529,0.9798071,6.173668
76.35075,112.796,-0.5753009,0.9798071,6.173668
76.40141,107.71,-0.6334631,0.9798071,6.173668
76.45121,100.7169,-0.6907306,0.9798071,6.167209
76.50246,97.02956,-0.7184694,0.9798071,6.173668
76.55196,95.12233,-0.7748418,0.9798071,6.173668
76.60148,95.24948,-0.8052652,0.9798071,6.173668
76.65137,95.37663,-0.829425,0.9798071,6.173668
76.70121,89.14634,-0.8822184,0.9798071,6.173668
76.75243,85.33189,-0.9484337,0.9798071,6.173668
76.8018,82.40748,-0.9860154,0.9798071,6.173668
76.85095,81.26313,-1.03523,0.9799718,6.173668
76.90108,84.0604,-1.109499,0.9799718,6.173668
76.95094,112.6688,-1.164081,0.9798071,6.173668
77.00282,113.3046,-1.189136,0.9798071,6.173668
77.05225,107.8372,-1.221349,0.9798071,6.173668
77.10069,103.0055,-1.287565,0.9798071,6.173668
77.15062,98.04675,-1.311724,0.9798071,6.173668
77.20149,96.13953,-1.354674,0.9798071,6.173668
77.25249,96.39381,-1.39852,0.9798071,6.173668
77.30208,96.90242,-1.411047,0.9798071,6.167209
77.35082,89.40065,-1.463841,0.9798071,6.173668
77.40102,86.98483,-1.525582,0.9798071,6.173668
77.45184,84.3147,-1.554216,0.9799718,6.173668
77.50258,82.78893,-1.644591,0.9798071,6.173668
77.55261,80.50024,-1.69649,0.9798071,6.173668
77.60128,113.3046,-1.703648,0.9798071,6.173668
77.65075,114.7032,-1.712596,0.9799718,6.180127
77.70182,107.5829,-1.724229,0.9798071,6.173668
77.75188,102.7513,-1.743019,0.9798071,6.180127
77.80184,98.30104,-1.753757,0.9796425,6.180127
77.85086,97.66531,-1.773443,0.9798071,6.180127
77.90093,97.15671,-1.856659,0.9798071,6.180127
77.9509,96.90242,-1.948824,0.9799718,6.180127
78.0022,88.38345,-1.954193,0.9798071,6.180127
78.05274,86.47623,-1.950614,0.9798071,6.180127
78.10084,84.3147,-1.947034,0.9799718,6.186586
78.15086,81.64457,-1.947034,0.9798071,6.186586
78.20136,79.99165,-1.945245,0.9798071,6.186586
78.25269,91.56216,-1.945245,0.9798071,6.186586
78.30274,114.4489,-1.94614,0.9798071,6.186586
78.35149,110.8888,-1.945245,0.9798071,6.193046
78.40107,103.7684,-1.94435,0.9798071,6.193046
78.45187,97.79247,-1.932718,0.9799718,6.186586
78.50174,94.35944,-1.896926,0.9799718,6.193046
78.55173,94.10515,-1.867397,0.9798071,6.193046
78.60136,94.48659,-1.919296,0.9798071,6.193046
78.65073,88.5106,-1.928244,0.9799718,6.193046
78.70174,84.3147,-1.935402,0.9798071,6.193046
78.75195,82.40748,-1.945245,0.9798071,6.199505
78.80196,80.88168,-1.971194,0.9798071,6.199505
78.85094,79.48306,-2.05978,0.9799718,6.199505
78.90095,98.1739,-2.076781,0.9799718,6.199505
78.95095,112.9231,-2.066938,0.9798071,6.199505
79.00221,109.9987,-2.060675,0.9798071,6.199505
79.05204,102.7513,-2.056201,0.9798071,6.205964
79.10155,97.15671,-2.056201,0.9799718,6.205964
79.15121,95.24948,-2.055306,0.9798071,6.205964
79.20121,94.48659,-2.054411,0.9798071,6.205964
79.25274,93.72369,-2.05799,0.9798071,6.205964
79.30205,88.25631,-2.061569,0.9798071,6.205964
79.35173,83.93326,-2.071412,0.9798071,6.205964
79.40167,81.26313,-2.091098,0.9798071,6.205964
79.45121,79.99165,-2.155524,0.9798071,6.205964
79.50222,83.04321,-2.251268,0.9798071,6.205964
79.55258,108.4729,-2.273638,0.9798071,6.212423
79.60121,112.5417,-2.266479,0.9798071,6.212423
79.65096,109.1087,-2.254847,0.9799718,6.212423
79.70173,100.5897,-2.23874,0.9798071,6.212423
79.7524,97.53816,-2.186842,0.9796425,6.212423
79.80222,94.86804,-2.144786,0.9798071,6.212423
79.8508,94.10515,-2.096467,0.9798071,6.212423
79.9007,93.46941,-2.064254,0.9798071,6.212423
79.95164,86.34908,-2.031146,0.9799718,6.212423
80.00173,83.29751,-1.998038,0.9798071,6.218882
80.0523,80.24594,-1.94256,0.9798071,6.212423
80.10071,78.97446,-1.743914,0.9798071,6.218882
80.15073,78.33871,-1.67233,0.9799718,6.212423
80.20183,95.12233,-1.511265,0.9798071,6.218882
80.25242,111.7788,-1.317093,0.9799718,6.218882
80.30215,109.2358,-1.14887,0.9799718,6.218882
80.35074,101.7341,-1.018229,0.9796425,6.218882
80.4017,96.13953,-0.8777443,0.9798071,6.218882
80.45166,92.45221,-0.7828951,0.9798071,6.218882
80.5017,93.978,-0.6844667,0.9798071,6.218882
80.55269,93.72369,-0.6003551,0.9798071,6.218882
80.60121,87.87486,-0.5421929,0.9796425,6.218882
80.65177,82.02603,-0.4813464,0.9799718,6.218882
80.70119,80.11879,-0.4240789,0.9798071,6.218882
80.75248,78.46587,-0.3963401,0.9799718,6.225342
80.80218,80.11879,-0.3721803,0.9798071,6.218882
80.85172,93.978,-0.3229662,0.9798071,6.218882
80.9012,111.1431,-0.2549611,0.9799718,6.218882
80.95135,106.3114,-0.2173794,0.9799718,6.225342
81.0024,98.30104,-0.1994835,0.9799718,6.218882
81.05219,90.29069,-0.1806924,0.9798071,6.218882
81.1017,89.2735,-0.1842718,0.9798071,6.218882
81.15173,91.30788,-0.2084313,0.9799718,6.218882
81.20181,91.81647,-0.2218534,0.9798071,6.218882
81.25169,84.0604,-0.2585404,0.9798071,6.218882
81.30202,79.73734,-0.2880687,0.9798071,6.218882
81.35182,77.57583,-0.3489155,0.9798071,6.218882
81.40119,76.55863,-0.3596532,0.9798071,6.218882
81.45184,80.88168,-0.369496,0.9798071,6.225342
81.50232,111.7788,-0.3811284,0.9798071,6.218882
81.55216,110.5073,-0.3999191,0.9798071,6.218882
81.60184,100.3354,-0.4267635,0.9799718,6.218882
81.65132,92.7065,-0.4330271,0.9798071,6.218882
81.70168,89.78209,-0.4545023,0.9799718,6.218882
81.7522,90.29069,-0.4956634,0.9798071,6.218882
81.80167,91.18073,-0.5225074,0.9799718,6.218882
81.85075,84.95044,-0.5600892,0.9799718,6.218882
81.90108,82.40748,-0.6093032,0.9799718,6.218882
81.9508,79.61021,-0.6764136,0.9798071,6.225342
82.00207,77.32152,-0.8222663,0.9798071,6.218882
82.0518,76.55863,-0.94396,0.9798071,6.225342
82.10113,102.6241,-1.023597,0.9798071,6.218882
82.15079,111.7788,-1.076391,0.9798071,6.225342
82.20168,106.4386,-1.14887,0.9798071,6.218882
82.2528,97.9196,-1.245509,0.9798071,6.218882
82.30189,93.08795,-1.324251,0.9799718,6.218882
82.35168,91.81647,-1.361833,0.9796425,6.218882
82.40167,91.05358,-1.4191,0.9798071,6.218882
82.45119,91.43503,-1.523792,0.9798071,6.218882
82.50201,85.96764,-1.71707,0.9798071,6.218882
82.55197,82.28033,-1.941666,0.9799718,6.218882
82.60072,78.97446,-2.005197,0.9796425,6.218882
82.65071,75.28716,-2.152839,0.9798071,6.218882
82.70139,80.75454,-2.292429,0.9799718,6.218882
82.75272,110.5073,-2.4007,0.9898543,6.218882
82.80262,113.3046,-2.415017,0.9898543,6.218882
82.85143,110.6345,-2.417701,0.9898543,6.218882
82.90102,97.9196,-2.418596,0.9898543,6.218882
82.95189,94.86804,-2.415017,0.9898543,6.218882
83.00217,93.34225,-2.419491,0.9896896,6.218882
83.05219,92.83366,-2.453493,0.9898543,6.218882
83.10155,92.83366,-2.479443,0.9898543,6.218882
83.15096,84.69615,-2.454388,0.9898543,6.218882
83.20096,82.15317,-2.450809,0.9898543,6.218882
83.25239,79.99165,-2.459757,0.9898543,6.218882
83.30263,76.55863,-2.496444,0.9898543,6.212423
83.35143,83.17036,-2.493759,0.9898543,6.218882
83.40144,103.7684,-2.486601,0.9896896,6.218882
83.4509,112.9231,-2.466915,0.9898543,6.218882
83.5029,106.6929,-2.391752,0.9898543,6.212423
83.55263,100.7169,-2.324641,0.9898543,6.218882
83.60099,94.48659,-2.308535,0.9898543,6.218882
83.65096,92.83366,-2.270953,0.9898543,6.212423
83.70189,92.19792,-2.235161,0.9898543,6.218882
83.75288,92.07076,-2.196685,0.9898543,6.212423
83.80267,85.84048,-2.153734,0.9898543,6.212423
83.85143,84.0604,-2.078571,0.9896896,6.212423
83.90115,78.59301,-1.866502,0.9898543,6.212423
83.95096,75.41429,-1.758231,0.9898543,6.212423
84.00171,83.29751,-1.630274,0.9898543,6.212423
84.05258,107.5829,-1.405678,0.9898543,6.212423
84.10096,111.2702,-1.293828,0.999737,6.212423
84.15103,106.1843,-1.161397,0.999737,6.212423
84.20142,98.42819,-1.083549,0.9999016,6.212423
84.25266,91.81647,-0.9350118,0.999737,6.212423
84.30173,89.78209,-0.8213716,0.9999016,6.218882
84.35104,91.56216,-0.6504643,0.9999016,6.212423
84.40075,92.19792,-0.4715035,0.9999016,6.212423
84.45179,83.42466,-0.3113338,0.9999016,6.212423
84.50278,78.97446,-0.2540663,0.9999016,6.212423
84.5524,77.70296,-0.2173794,0.9999016,6.212423
84.60164,78.21156,-0.1967989,0.999737,6.212423
84.65091,82.15317,-0.1789029,0.999737,6.212423
84.70162,107.71,-0.1153719,0.999737,6.212423
84.75171,111.5245,-0.04378747,0.999737,6.212423
84.80183,101.8612,0.03495527,0.9999016,6.212423
84.85154,97.02956,0.1011705,0.9999016,6.212423
84.90158,89.78209,0.1638068,0.999737,6.212423
84.95177,91.68932,0.2121262,0.999737,6.212423
85.00269,93.59654,0.2344965,0.999737,6.205964
85.05228,92.45221,0.2452341,0.999737,6.205964
85.1017,81.39028,0.2344965,0.9999016,6.212423
85.15137,79.22876,0.2067574,0.9999016,6.205964
85.20103,78.21156,0.1620173,0.9999016,6.212423
85.25278,76.94007,0.0984863,0.999737,6.205964
85.30255,101.2255,0.0698524,0.9999016,6.205964
85.35182,112.4145,0.05553578,0.999737,6.205964
85.40182,108.3458,0.0304812,0.999737,6.205964
85.45139,97.15671,0.02242781,0.9999016,6.205964
85.50231,92.07076,0.01884882,0.9999016,6.205964
85.55279,90.16354,-0.001731695,0.999737,6.205964
85.60114,94.2323,-0.03126035,0.9999016,6.205964
85.65095,93.2151,-0.05541985,0.999737,6.205964
85.70082,87.62056,-0.09389663,0.999737,6.205964
85.75291,81.13599,-0.1323731,0.9999016,6.205964
85.80278,79.86449,-0.1842718,0.9999016,6.205964
85.85152,77.95727,-0.2191689,0.9999016,6.205964
85.90192,84.3147,-0.2478028,0.999737,6.199505
85.95103,114.4489,-0.2630145,0.9999016,6.205964
86.00203,112.6688,-0.2818052,0.999737,6.199505
86.05202,101.7341,-0.3354933,0.9999016,6.199505
86.10192,97.66531,-0.4079725,0.9999016,6.205964
86.15127,92.45221,-0.4589764,0.999737,6.205964
86.2019,92.19792,-0.528771,0.999737,6.199505
86.25291,93.72369,-0.5887227,0.9999016,6.199505
86.30249,93.59654,-0.6477797,0.9999016,6.199505
86.35175,87.49342,-0.7014682,0.999737,6.199505
86.40136,83.29751,-0.7578406,0.999737,6.199505
86.45117,81.00883,-0.8526897,0.9999016,6.199505
86.50242,80.24594,-0.9573818,0.999737,6.199505
86.55218,104.277,-1.013755,0.999737,6.199505
86.6019,114.5761,-1.039704,0.9999016,6.199505
86.65165,111.2702,-1.0576,0.9999016,6.199505
86.70166,105.0399,-1.087129,0.999737,6.199505
86.75202,99.06393,-1.127394,0.9999016,6.193046
86.80202,95.75809,-1.128289,0.9999016,6.199505
86.8519,96.64812,-1.146185,0.9999016,6.193046
86.90194,97.79247,-1.167661,0.9999016,6.199505
86.95087,91.68932,-1.223138,0.9999016,6.199505
87.00177,88.7649,-1.333199,0.9999016,6.193046
87.05177,85.71333,-1.383308,0.9999016,6.199505
87.10177,81.26313,-1.394046,0.9898543,6.199505
87.15124,79.3559,-1.42268,0.9898543,6.193046
87.20129,92.7065,-1.547952,0.9896896,6.193046
87.25219,118.6448,-1.690226,0.9898543,6.193046
87.30216,112.5417,-1.74123,0.9898543,6.193046
87.35149,108.4729,-1.887978,0.9898543,6.193046
87.40125,101.7341,-1.921085,0.9898543,6.193046
87.45094,98.04675,-1.938087,0.9898543,6.193046
87.50216,98.04675,-1.963141,0.9898543,6.193046
87.55262,95.88522,-1.998038,0.9896896,6.193046
87.60101,92.19792,-2.063359,0.9896896,6.193046
87.65189,88.12916,-2.123311,0.9898543,6.193046
87.70077,85.07759,-2.137628,0.9898543,6.193046
87.75185,82.66177,-2.142997,0.9896896,6.193046
87.80281,79.86449,-2.148365,0.9900191,6.186586
87.85149,78.84731,-2.146576,0.9896896,6.186586
87.90089,115.8476,-2.136733,0.9898543,6.193046
87.95077,114.8304,-2.114363,0.9898543,6.186586
88.00223,107.2015,-2.093782,0.9896896,6.193046
88.05279,102.6241,-2.068728,0.9898543,6.186586
88.10146,97.79247,-2.042778,0.9898543,6.186586
88.15089,97.02956,-2.016829,0.9896896,6.186586
88.20164,97.28386,-1.983721,0.9898543,6.186586
88.25202,98.04675,-1.958667,0.9898543,6.186586
88.30298,88.12916,-1.940771,0.9898543,6.186586
88.35181,84.3147,-1.906768,0.9900191,6.186586
88.40179,82.40748,-1.637433,0.9898543,6.186586
88.45177,79.10161,-1.51395,0.9799718,6.186586
88.5026,79.3559,-1.391361,0.9799718,6.186586
88.55214,108.9815,-1.275932,0.9799718,6.186586
88.60153,114.1946,-1.109499,0.9799718,6.180127
88.65149,108.4729,-0.9636454,0.9799718,6.180127
88.70101,103.1327,-0.8822184,0.9798071,6.180127
88.75188,97.79247,-0.7667887,0.9798071,6.186586
88.80214,94.61374,-0.6495695,0.9798071,6.180127
88.85146,95.37663,-0.5842487,0.9798071,6.180127
88.90145,98.80965,-0.4974529,0.9798071,6.180127
88.95145,90.67213,-0.3274403,0.9798071,6.180127
89.0023,88.38345,-0.2352753,0.9798071,6.180127
89.05185,81.26313,-0.2030624,0.9799718,6.180127
89.10088,79.10161,-0.1789029,0.9798071,6.180127
89.1516,78.97446,-0.172639,0.9798071,6.180127
89.20115,79.3559,-0.1690601,0.9798071,6.180127
89.25215,112.2874,-0.1511638,0.9799718,6.180127
89.30252,112.6688,-0.1323731,0.9799718,6.180127
89.35094,107.71,-0.1243197,0.9798071,6.173668
89.40191,100.7169,-0.127899,0.9798071,6.180127
89.45151,95.12233,-0.1475848,0.9799718,6.180127
89.50301,97.66531,-0.1771131,0.9799718,6.173668
89.5526,98.04675,-0.2039572,0.9798071,6.180127
89.60113,90.79928,-0.2254324,0.9798071,6.173668
89.65178,84.95044,-0.2540663,0.9798071,6.173668
89.70116,83.29751,-0.2746468,0.9798071,6.173668
89.75201,83.29751,-0.3175974,0.9798071,6.173668
89.80259,76.68578,-0.3489155,0.9798071,6.173668
89.85126,75.92289,-0.3945503,0.9799718,6.167209
89.90189,92.7065,-0.4867152,0.9798071,6.173668
89.95176,113.0503,-0.5520357,0.9798071,6.173668
90.0021,102.6241,-0.606619,0.9798071,6.167209
90.05192,100.7169,-0.6531485,0.9799718,6.167209
90.1019,95.24948,-0.6594124,0.9798071,6.173668
90.15147,95.12233,-0.6710448,0.9798071,6.173668
90.20152,95.37663,-0.6790978,0.9799718,6.167209
90.25238,96.01237,-0.688046,0.9798071,6.167209
90.30238,86.98483,-0.706837,0.9798071,6.167209
90.35193,83.04321,-0.7345758,0.9798071,6.167209
90.40162,82.02603,-0.7846847,0.9798071,6.167209
90.45093,77.32152,-0.8500055,0.9798071,6.167209
90.50217,79.10161,-0.9860154,0.9799718,6.167209
90.55192,87.74771,-1.05581,0.9799718,6.167209
90.60164,115.7204,-1.094287,0.9798071,6.167209
90.65138,113.0503,-1.107709,0.9799718,6.167209
90.70087,105.93,-1.125605,0.9798071,6.167209
90.75185,102.497,-1.146185,0.9798071,6.16075
90.80284,98.04675,-1.14708,0.9796425,6.167209
90.85117,97.41101,-1.163187,0.9798071,6.16075
90.90115,97.53816,-1.181978,0.9799718,6.167209
90.95111,93.2151,-1.207032,0.9798071,6.16075
91.0021,88.38345,-1.290249,0.9798071,6.167209
91.05273,80.88168,-1.344832,0.9799718,6.16075
91.10087,80.11879,-1.394941,0.9799718,6.16075
91.15163,83.17036,-1.46563,0.9798071,6.167209
91.20142,78.97446,-1.661592,0.9798071,6.16075
91.25191,88.5106,-1.746598,0.9798071,6.16075
91.30283,116.1019,-1.815498,0.9801366,6.16075
91.35142,114.5761,-1.882609,0.9799718,6.16075
91.40114,105.1671,-1.881714,0.9798071,6.16075
91.45161,100.4626,-1.890662,0.9799718,6.16075
91.50291,99.69969,-1.889767,0.9798071,6.16075
91.5519,99.19109,-1.892451,0.9798071,6.16075
91.60134,98.9368,-1.89961,0.9798071,6.16075
91.65189,96.64812,-1.916611,0.9798071,6.15429
91.70188,89.78209,-1.956877,0.9798071,6.16075
91.75189,85.84048,-2.042778,0.9898543,6.16075
91.80184,81.26313,-2.112573,0.9896896,6.15429
91.85141,80.11879,-2.134943,0.9898543,6.15429
91.90112,75.92289,-2.143891,0.9896896,6.15429
91.95112,80.62739,-2.142997,0.9900191,6.16075
92.00261,109.4901,-2.134943,0.9898543,6.15429
92.05274,112.0331,-2.114363,0.9900191,6.15429
92.10122,103.5141,-2.089308,0.9898543,6.15429
92.15087,101.6069,-2.058885,0.9898543,6.15429
92.20087,96.77527,-2.022198,0.9898543,6.15429
92.25218,94.48659,-1.987301,0.9898543,6.15429
92.30284,93.34225,-1.960457,0.9901838,6.15429
92.35163,93.34225,-1.938087,0.9898543,6.147832
92.40161,84.44184,-1.774337,0.9898543,6.15429
92.45134,81.51743,-1.604325,0.9898543,6.15429
92.50276,78.97446,-1.469209,0.9898543,6.147832
92.55261,77.32152,-1.347516,0.9898543,6.147832
92.60194,76.17719,-1.291143,0.9898543,6.147832
92.65085,83.55181,-1.1954,0.9900191,6.147832
92.70136,110.5073,-1.085339,0.9898543,6.147832
92.75225,110.8888,-0.94396,0.9898543,6.147832
92.8019,105.6757,-0.8491108,0.9896896,6.147832
92.85141,97.53816,-0.7873693,0.9898543,6.147832
92.90154,92.45221,-0.6996784,0.9898543,6.147832
92.95084,94.74089,-0.6236202,0.9898543,6.147832
93.00211,94.61374,-0.5797749,0.9898543,6.147832
93.05211,94.86804,-0.5332451,0.9898543,6.141372
93.10181,83.55181,-0.4723983,0.9898543,6.141372
93.1515,80.50024,-0.4240789,0.9898543,6.147832
93.20128,79.10161,-0.3820232,0.9898543,6.147832
93.25294,76.94007,-0.3632325,0.9898543,6.147832
93.30286,76.30434,-0.3480208,0.9898543,6.141372
93.35176,104.0227,-0.3310193,0.9898543,6.147832
93.40123,109.1087,-0.2997015,0.9898543,6.141372
93.45145,104.277,-0.2594352,0.9898543,6.141372
93.50235,98.30104,-0.2531716,0.9898543,6.141372
93.55228,93.59654,-0.2549611,0.9898543,6.141372
93.60199,91.81647,-0.2656987,0.9898543,6.141372
93.65171,91.68932,-0.3050703,0.9898543,6.141372
93.70179,95.63092,-0.3354933,0.9898543,6.141372
93.75279,85.84048,-0.3515998,0.9898543,6.141372
93.80285,82.91606,-0.3775491,0.9898543,6.141372
93.8514,80.75454,-0.4070778,0.9898543,6.141372
93.90096,78.84731,-0.450923,0.9898543,6.141372
93.95086,76.81293,-0.5260864,0.9898543,6.141372
94.00198,96.77527,-0.6110927,0.9898543,6.134913
94.05296,113.3046,-0.6522537,0.9896896,6.134913
94.10165,104.6585,-0.6835719,0.9898543,6.134913
94.15113,100.5897,-0.729207,0.9898543,6.134913
94.20098,97.79247,-0.7730523,0.9896896,6.134913
94.25288,92.45221,-0.788264,0.9896896,6.134913
94.30286,97.41101,-0.8249509,0.9898543,6.134913
94.35133,94.74089,-0.9063779,0.9898543,6.134913
94.40113,90.92643,-0.9618559,0.9896896,6.134913
94.45196,84.3147,-1.015544,0.9898543,6.134913
94.50285,82.28033,-1.07818,0.9900191,6.134913
94.55286,80.50024,-1.152449,0.9898543,6.134913
94.60113,75.92289,-1.310829,0.9898543,6.134913
94.65168,84.69615,-1.426259,0.9898543,6.134913
94.70183,109.4901,-1.495159,0.9896896,6.134913
94.7524,111.3974,-1.547057,0.9798071,6.128454
94.80265,104.1499,-1.615062,0.9796425,6.134913
94.85095,102.497,-1.701858,0.9799718,6.134913
94.90112,95.63092,-1.726913,0.9798071,6.128454
94.95112,94.35944,-1.826236,0.9798071,6.128454
95.00288,94.2323,-1.887978,0.9798071,6.134913
95.05287,92.96081,-1.89782,0.9798071,6.128454
95.10114,85.96764,-1.92377,0.9798071,6.128454
95.15112,83.93326,-1.941666,0.9799718,6.128454
95.20186,81.64457,-1.96672,0.9798071,6.128454
95.25264,79.86449,-2.003407,0.9798071,6.128454
95.30212,78.46587,-2.105415,0.9798071,6.128454
95.35088,78.84731,-2.246794,0.9798071,6.128454
95.40098,104.7856,-2.338958,0.9798071,6.128454
95.45192,109.7444,-2.453493,0.9798071,6.128454
95.50249,107.0743,-2.506287,0.9799718,6.134913
95.55212,104.0227,-2.555501,0.9798071,6.128454
95.60091,99.95398,-2.60382,0.9798071,6.128454
95.6519,97.41101,-2.60382,0.9798071,6.128454
95.70177,97.02956,-2.655719,0.9799718,6.128454
95.7519,96.52097,-2.661983,0.9799718,6.128454
95.8029,89.5278,-2.683458,0.9796425,6.128454
95.85147,88.38345,-2.715671,0.9799718,6.121995
95.90112,84.0604,-2.735356,0.9798071,6.121995
95.95112,82.66177,-2.732672,0.9799718,6.121995
96.00239,79.99165,-2.730882,0.9798071,6.121995
96.05264,78.46587,-2.735356,0.9798071,6.121995
96.10098,78.21156,-2.729987,0.9798071,6.121995
96.15194,106.3114,-2.712091,0.9798071,6.121995
96.2019,109.6173,-2.697775,0.9799718,6.121995
96.25294,106.1843,-2.658403,0.9798071,6.121995
96.30238,101.8612,-2.606505,0.9798071,6.121995
96.35108,98.1739,-2.545658,0.9799718,6.121995
96.40126,96.90242,-2.513445,0.9798071,6.121995
96.45171,95.37663,-2.468705,0.9798071,6.115536
96.50275,94.2323,-2.394436,0.9798071,6.121995
96.5523,92.19792,-2.296008,0.9798071,6.121995
96.60091,84.18755,-2.030251,0.9798071,6.121995
96.65199,82.40748,-1.971194,0.9798071,6.121995
96.70118,81.51743,-1.848606,0.9798071,6.121995
96.75222,77.95727,-1.738545,0.9798071,6.115536
96.80222,77.06723,-1.630274,0.9796425,6.121995
96.8519,80.62739,-1.458472,0.9798071,6.115536
96.90163,104.7856,-1.315303,0.9798071,6.115536
96.95129,105.1671,-1.154238,0.9798071,6.115536
97.00221,100.0811,-1.019123,0.9798071,6.115536
97.05197,94.99519,-0.8750598,0.9798071,6.115536
97.10185,93.46941,-0.7793158,0.9798071,6.115536
97.151,92.96081,-0.7202589,0.9798071,6.115536
97.20126,92.45221,-0.6379371,0.9799718,6.115536
97.25238,86.34908,-0.5949863,0.9799718,6.115536
97.30224,83.67896,-0.5574046,0.9799718,6.115536
97.3512,80.50024,-0.5260864,0.9798071,6.115536
97.40188,79.73734,-0.4920841,0.9798071,6.115536
97.45146,76.94007,-0.4723983,0.9798071,6.115536
97.50208,76.55863,-0.4607659,0.9798071,6.109076
97.55222,86.73053,-0.4375012,0.9798071,6.115536
97.60184,108.9815,-0.4043932,0.9798071,6.109076
97.65163,105.5485,-0.3981296,0.9798071,6.109076
97.70123,100.3354,-0.3999191,0.9798071,6.115536
97.75221,93.2151,-0.4070778,0.9798071,6.115536
97.80217,90.67213,-0.4348166,0.9798071,6.109076
97.85146,90.03638,-0.4688193,0.9798071,6.109076
97.90106,92.19792,-0.4893995,0.9798071,6.109076
97.95182,88.00201,-0.5144541,0.9798071,6.109076
98.00288,83.67896,-0.5493515,0.9798071,6.102617
98.05258,81.26313,-0.5753009,0.9798071,6.109076
98.10206,78.72016,-0.5976709,0.9799718,6.109076
98.15145,77.32152,-0.6495695,0.9798071,6.109076
98.20172,80.11879,-0.7551563,0.9799718,6.109076
98.25246,107.2015,-0.8231614,0.9798071,6.109076
98.30208,108.0915,-0.8893767,0.9798071,6.109076
98.35183,105.0399,-0.9341171,0.9799718,6.109076
98.40163,97.79247,-0.9618559,0.9798071,6.102617
98.45107,92.7065,-0.9833311,0.9799718,6.109076
98.50228,91.56216,-0.9976481,0.9798071,6.102617
98.55207,91.94361,-1.026282,0.9799718,6.102617
98.60183,90.67213,-1.054021,0.9798071,6.102617
98.65158,82.15317,-1.101445,0.9798071,6.102617
98.70129,81.00883,-1.133658,0.9799718,6.109076
98.75218,78.97446,-1.172135,0.9798071,6.102617
98.80293,78.21156,-1.218665,0.9798071,6.102617
98.85162,76.94007,-1.310829,0.9799718,6.102617
98.90108,84.569,-1.384203,0.9798071,6.102617
98.95202,106.82,-1.409258,0.9798071,6.102617
99.0031,109.1087,-1.428943,0.9798071,6.096158
99.05235,105.5485,-1.464735,0.9799718,6.102617
99.1011,99.82683,-1.497843,0.9799718,6.102617
99.15187,95.12233,-1.541688,0.9796425,6.102617
99.20182,94.48659,-1.649065,0.9798071,6.096158
99.25272,93.2151,-1.766284,0.9798071,6.102617
99.30262,92.7065,-1.888872,0.9798071,6.102617
99.35134,83.42466,-1.902294,0.9798071,6.096158
99.40134,80.88168,-1.931823,0.9798071,6.102617
99.45135,79.48306,-1.948824,0.9898543,6.096158
99.50209,77.32152,-1.947929,0.9896896,6.096158
99.55263,73.50706,-1.96672,0.9898543,6.096158
99.60133,77.57583,-1.998933,0.9898543,6.096158
99.65106,102.3698,-2.040989,0.9898543,6.096158
99.70208,109.363,-2.052621,0.9898543,6.096158
99.75233,107.5829,-2.062464,0.9898543,6.096158
99.80233,101.0983,-2.08394,0.9898543,6.096158
99.8511,95.88522,-2.099151,0.9898543,6.096158
99.90182,93.34225,-2.134048,0.9896896,6.096158
99.95095,92.57936,-2.17163,0.9896896,6.096158
100.0023,91.81647,-2.236056,0.9898543,6.089699
100.0526,85.96764,-2.311219,0.9898543,6.089699
100.101,82.53461,-2.348801,0.9898543,6.089699
100.1519,80.62739,-2.401595,0.9896896,6.089699
100.2016,79.10161,-2.462441,0.9896896,6.089699
100.2527,74.90571,-2.505392,0.9898543,6.089699
100.3023,79.22876,-2.530446,0.9898543,6.089699
100.3517,106.3114,-2.534025,0.9896896,6.089699
100.4015,107.5829,-2.525972,0.9898543,6.089699
100.4513,105.5485,-2.49018,0.9900191,6.089699
100.5023,100.9712,-2.451704,0.9898543,6.089699
100.552,96.13953,-2.377435,0.9898543,6.08324
100.6016,92.19792,-2.320168,0.9898543,6.089699
100.6513,91.81647,-2.305851,0.9898543,6.089699
100.7012,92.19792,-2.260216,0.9898543,6.089699
100.7523,87.11198,-2.209212,0.9898543,6.089699
100.8029,83.67896,-2.159998,0.9896896,6.08324
100.8515,81.39028,-2.095572,0.9896896,6.08324
100.9015,78.97446,-1.94435,0.9900191,6.08324
100.9517,75.28716,-1.811919,0.9898543,6.08324
101.0027,76.05004,-1.687542,0.9898543,6.08324
101.0524,105.1671,-1.458472,0.9898543,6.08324
101.1019,108.3458,-1.315303,0.9898543,6.08324
101.1516,104.7856,-1.136343,0.9898543,6.08324
101.2013,98.6825,-0.993174,0.9896896,6.08324
101.2524,94.86804,-0.8356886,0.9896896,6.08324
101.3024,92.57936,-0.729207,0.9898543,6.08324
101.3518,92.19792,-0.606619,0.9900191,6.08324
101.4016,92.96081,-0.5072957,0.9898543,6.08324
101.4512,86.73053,-0.3847077,0.9898543,6.08324
101.5022,83.67896,-0.2979116,0.9896896,6.08324
101.5529,81.77173,-0.2379599,0.9898543,6.08324
101.6016,79.3559,-0.1976936,0.9898543,6.08324
101.6511,77.70296,-0.1762184,0.9898543,6.08324
101.7019,91.81647,-0.1350573,0.9898543,6.07678
101.7524,107.5829,-0.09479138,0.9898543,6.08324
101.8031,106.4386,-0.07331612,0.9896896,6.07678
101.8518,103.387,-0.05541985,0.9898543,6.07678
101.9016,93.34225,-0.01783814,0.9898543,6.07678
101.9516,92.19792,-0.00352119,0.9896896,6.07678
102.0024,92.96081,-0.008890005,0.9896896,6.08324
102.0521,92.96081,-0.0393134,0.9898543,6.07678
102.102,86.34908,-0.06436799,0.9898543,6.07678
102.1515,84.3147,-0.1010549,0.9898543,6.07678
102.201,82.53461,-0.1395314,0.9898543,6.07678
102.2523,79.3559,-0.1860612,0.9898543,6.07678
102.3023,77.83012,-0.2182741,0.9900191,6.07678
102.3518,89.65494,-0.2316963,0.9898543,6.07678
102.4011,108.6001,-0.2495923,0.9898543,6.070321
102.4519,107.5829,-0.2603299,0.9898543,6.07678
102.5021,100.9712,-0.272857,0.9898543,6.07678
102.552,94.2323,-0.2800157,0.9896896,6.070321
102.6016,92.45221,-0.2826999,0.9898543,6.070321
102.6519,92.57936,-0.3077545,0.9898543,6.070321
102.7016,93.34225,-0.342652,0.9898543,6.070321
102.7526,86.22193,-0.3659167,0.9898543,6.070321
102.8026,83.42466,-0.4249737,0.9898543,6.070321
102.8511,82.91606,-0.4983476,0.9898543,6.07678
102.9011,79.22876,-0.5600892,0.9896896,6.070321
102.952,77.19438,-0.6325684,0.9898543,6.070321
103.0014,100.844,-0.673729,0.9898543,6.070321
103.0511,109.9987,-0.7014682,0.9898543,6.070321
103.1011,107.0743,-0.7345758,0.9799718,6.070321
103.1524,102.8784,-0.7569458,0.9799718,6.070321
103.2013,99.95398,-0.7855797,0.9798071,6.070321
103.2522,94.48659,-0.7900535,0.9799718,6.070321
103.3021,93.59654,-0.8267404,0.9799718,6.070321
103.3522,93.85085,-0.8670067,0.9798071,6.070321
103.4028,92.96081,-0.9180107,0.9798071,6.070321
103.4512,85.33189,-0.9538025,0.9798071,6.063862
103.5015,83.42466,-0.9851207,0.9798071,6.063862
103.5513,81.77173,-1.013755,0.9798071,6.070321
103.6012,79.10161,-1.109499,0.9798071,6.070321
103.6523,92.07076,-1.210611,0.9798071,6.070321
103.7012,109.6173,-1.283985,0.9798071,6.063862
103.7521,109.8716,-1.314409,0.9798071,6.063862
103.8021,106.6929,-1.352885,0.9798071,6.063862
103.8521,102.497,-1.384203,0.9798071,6.063862
103.9025,97.15671,-1.392256,0.9798071,6.070321
103.9513,95.12233,-1.426259,0.9799718,6.070321
104.0021,94.86804,-1.491579,0.9798071,6.063862
104.0518,94.10515,-1.619536,0.9799718,6.070321
104.1018,86.09478,-1.756441,0.9798071,6.063862
104.1532,84.3147,-1.871871,0.9799718,6.063862
104.2017,82.66177,-1.891557,0.9798071,6.063862
104.2517,79.73734,-1.918401,0.9798071,6.063862
104.3014,79.22876,-1.947929,0.9799718,6.063862
104.3522,89.78209,-1.947034,0.9798071,6.063862
104.4026,110.5073,-1.947034,0.9798071,6.063862
104.4522,109.8716,-1.947929,0.9798071,6.063862
104.5018,104.6585,-1.947929,0.9798071,6.063862
104.5519,101.7341,-1.947929,0.9799718,6.063862
104.6018,97.66531,-1.951509,0.9798071,6.063862
104.653,95.75809,-1.959562,0.9799718,6.063862
104.7017,95.24948,-1.965825,0.9798071,6.063862
104.7518,94.74089,-1.973879,0.9798071,6.063862
104.8021,87.36626,-1.973879,0.9798071,6.063862
104.8519,85.33189,-1.974773,0.9799718,6.063862
104.9031,83.93326,-1.969405,0.9799718,6.063862
104.9518,80.88168,-1.961351,0.9799718,6.057403
105.001,78.46587,-1.950614,0.9798071,6.063862
105.052,85.96764,-1.931823,0.9798071,6.063862
105.1015,109.4901,-1.911242,0.9898543,6.057403
105.1527,109.363,-1.888872,0.9898543,6.063862
105.2017,105.0399,-1.817288,0.9898543,6.063862
105.2514,100.7169,-1.71886,0.9898543,6.063862
105.3013,96.01237,-1.673225,0.9898543,6.057403
105.3521,94.2323,-1.598061,0.9898543,6.057403
105.4031,93.59654,-1.323356,0.9898543,6.057403
105.4514,92.7065,-1.154238,0.9898543,6.057403
105.5018,85.58618,-1.03344,0.9896896,6.057403
105.5518,81.13599,-0.8849027,0.9896896,6.057403
105.6013,80.11879,-0.765894,0.9898543,6.057403
105.6522,78.72016,-0.6773083,0.9896896,6.057403
105.7022,77.06723,-0.6486748,0.9898543,6.057403
105.752,75.92289,-0.6048292,0.9896896,6.057403
105.8013,100.2083,-0.5663527,0.9896896,6.057403
105.8519,106.4386,-0.5028217,0.9900191,6.057403
105.9028,103.1327,-0.4375012,0.9898543,6.057403
105.9513,96.39381,-0.3703908,0.9896896,6.050944
106.001,92.7065,-0.2782258,0.9898543,6.057403
106.0513,91.30788,-0.2397494,0.9898543,6.057403
106.1013,91.43503,-0.2111158,0.9898543,6.057403
106.1523,91.56216,-0.1914301,0.9898543,6.050944
106.2021,84.569,-0.1735341,0.9898543,6.057403
106.2516,81.26313,-0.1690601,0.9898543,6.057403
106.3015,80.11879,-0.1627965,0.9896896,6.050944
106.3512,77.44867,-0.1511638,0.9898543,6.057403
106.4031,74.26996,-0.1619014,0.9898543,6.050944
106.4513,85.84048,-0.1654807,0.9898543,6.057403
106.5013,105.0399,-0.1708495,0.9898543,6.057403
106.5513,106.6929,-0.1914301,0.9898543,6.050944
106.6013,99.82683,-0.2111158,0.9898543,6.057403
106.6523,92.57936,-0.2236429,0.9898543,6.050944
106.7011,89.65494,-0.2325911,0.9900191,6.050944
106.752,89.90925,-0.246908,0.9898543,6.057403
106.8018,90.16354,-0.2639092,0.9896896,6.050944
106.8511,90.67213,-0.2809104,0.9898543,6.050944
106.9028,83.29751,-0.3211767,0.9898543,6.050944
106.9511,79.86449,-0.3337038,0.9898543,6.050944
107.0014,76.55863,-0.3748648,0.9896896,6.050944
107.0518,74.90571,-0.4893995,0.9898543,6.050944
107.1018,76.55863,-0.587828,0.9798071,6.050944
107.1531,104.7856,-0.6459902,0.9799718,6.050944
107.2016,106.5657,-0.6719396,0.9798071,6.044485
107.2515,103.6413,-0.6808877,0.9799718,6.050944
107.3011,96.90242,-0.6987836,0.9798071,6.050944
107.3519,92.96081,-0.7148901,0.9798071,6.044485
107.403,89.78209,-0.7318913,0.9798071,6.044485
107.452,89.90925,-0.7667887,0.9798071,6.050944
107.5018,90.54498,-0.8419521,0.9798071,6.050944
107.5521,90.03638,-0.8804286,0.9798071,6.044485
107.6021,80.24594,-0.9278532,0.9796425,6.044485
107.6525,78.97446,-0.9761729,0.9798071,6.044485
107.7012,75.16,-1.001227,0.9798071,6.044485
107.7519,73.76136,-1.115762,0.9896896,6.044485
107.8019,72.48988,-1.293828,0.9898543,6.050944
107.8513,75.41429,-1.388677,0.9898543,6.044485
107.9026,107.5829,-1.403889,0.9898543,6.044485
107.9513,105.2942,-1.42089,0.9898543,6.038026
108.0011,98.6825,-1.453103,0.9898543,6.044485
108.0517,95.24948,-1.457577,0.9898543,6.044485
108.1017,92.83366,-1.459367,0.9898543,6.044485
108.1526,91.43503,-1.748388,0.9898543,6.044485
108.2013,91.43503,-1.747493,0.9898543,6.044485
108.2514,85.96764,-1.765389,0.9898543,6.044485
108.3021,80.88168,-1.846817,0.9898543,6.044485
108.3521,79.3559,-1.862923,0.9898543,6.038026
108.4023,77.57583,-1.892451,0.9896896,6.044485
108.4515,73.88851,-1.991775,0.9898543,6.044485
108.502,76.81293,-2.091993,0.9898543,6.044485
108.5518,91.18073,-2.154629,0.9898543,6.038026
108.6013,108.8544,-2.223529,0.9896896,6.038026
108.6525,106.3114,-2.260216,0.9900191,6.038026
108.7011,100.5897,-2.287955,0.9898543,6.038026
108.7522,97.41101,-2.320168,0.9898543,6.038026
108.8022,94.2323,-2.324641,0.9898543,6.038026
108.8511,92.7065,-2.323747,0.9896896,6.038026
108.9023,92.32506,-2.326431,0.9898543,6.038026
108.9522,88.38345,-2.328221,0.9900191,6.038026
109.0019,83.04321,-2.330905,0.9896896,6.038026
109.0517,80.11879,-2.328221,0.9898543,6.038026
109.1017,78.21156,-2.322852,0.9898543,6.038026
109.1529,75.54144,-2.320168,0.9898543,6.038026
109.2023,73.76136,-2.312114,0.9898543,6.038026
109.2512,79.99165,-2.28527,0.9898543,6.038026
109.3014,108.3458,-2.254847,0.9898543,6.031566
109.3513,108.7272,-2.219055,0.9898543,6.031566
109.4026,102.497,-2.162682,0.9896896,6.031566
109.4512,98.55534,-2.100046,0.9898543,6.031566
109.502,93.08795,-2.032936,0.9898543,6.038026
109.5518,91.94361,-1.936297,0.9898543,6.031566
109.6014,92.19792,-1.799392,0.9898543,6.031566
109.6526,92.19792,-1.676804,0.9898543,6.031566
109.7022,83.67896,-1.500528,0.9898543,6.031566
109.7519,81.77173,-1.360043,0.9898543,6.031566
109.8012,78.72016,-1.268773,0.9896896,6.031566
109.8523,78.46587,-1.152449,0.9896896,6.031566
109.9029,74.65141,-1.060284,0.9898543,6.031566
109.9513,86.22193,-0.9269584,0.9898543,6.031566
110.0015,108.3458,-0.829425,0.9898543,6.031566
110.052,108.3458,-0.7309965,0.9898543,6.031566
110.1018,102.6241,-0.6558331,0.9896896,6.031566
110.1526,95.24948,-0.587828,0.9898543,6.025107
110.2013,90.67213,-0.5251917,0.9896896,6.025107
110.2523,90.67213,-0.4536076,0.9898543,6.025107
110.302,91.94361,-0.3829179,0.9898543,6.031566
110.352,92.19792,-0.3301245,0.9898543,6.031566
110.4027,82.78893,-0.2818052,0.9896896,6.025107
110.4512,81.13599,-0.2630145,0.9898543,6.031566
110.5023,76.81293,-0.2531716,0.9896896,6.025107
110.5515,74.52426,-0.250487,0.9898543,6.025107
110.6016,75.28716,-0.2451182,0.9898543,6.025107
110.6532,94.99519,-0.246013,0.9896896,6.025107
110.702,108.0915,-0.2558559,0.9896896,6.025107
110.7523,103.387,-0.272857,0.9898543,6.025107
110.8023,96.52097,-0.3158079,0.9898543,6.025107
110.8523,89.78209,-0.3345986,0.9896896,6.025107
110.903,89.14634,-0.3444415,0.9898543,6.025107
110.9513,91.18073,-0.3614427,0.9898543,6.025107
111.0013,91.56216,-0.3820232,0.9898543,6.025107
111.0513,82.28033,-0.4106571,0.9898543,6.025107
111.1018,80.37309,-0.4661347,0.9798071,6.025107
111.1529,76.81293,-0.5332451,0.9798071,6.018648
111.2013,75.03284,-0.6110927,0.9798071,6.025107
111.2513,74.65141,-0.6665707,0.9798071,6.025107
111.3022,87.74771,-0.6978889,0.9799718,6.018648
111.3515,109.2358,-0.7283123,0.9798071,6.018648
111.4023,107.3286,-0.7560511,0.9796425,6.018648
111.4516,100.7169,-0.7757369,0.9798071,6.025107
111.5015,93.59654,-0.7900535,0.9799718,6.018648
111.5519,91.18073,-0.8222663,0.9798071,6.018648
111.6019,92.07076,-0.8687962,0.9798071,6.018648
111.6523,92.57936,-0.9189054,0.9798071,6.018648
111.7018,92.07076,-0.9412754,0.9799718,6.018648
111.7518,83.17036,-0.9600664,0.9798071,6.018648
111.8016,79.10161,-0.970804,0.9798071,6.018648
111.8513,78.72016,-0.9895947,0.9798071,6.018648
111.9021,75.79574,-1.042388,0.9799718,6.018648
111.9514,79.99165,-1.173924,0.9798071,6.018648
112.0023,105.93,-1.299197,0.9798071,6.018648
112.052,109.9987,-1.373466,0.9798071,6.012189
112.1016,102.8784,-1.384203,0.9799718,6.018648
112.1523,98.1739,-1.409258,0.9798071,6.012189
112.2023,94.61374,-1.441471,0.9796425,6.018648
112.2515,92.96081,-1.511265,0.9798071,6.018648
112.3013,93.46941,-1.60164,0.9798071,6.012189
112.3512,93.85085,-1.678593,0.9798071,6.012189
112.4026,86.47623,-1.826236,0.9798071,6.012189
112.4511,83.80611,-1.890662,0.9798071,6.012189
112.502,82.15317,-1.906768,0.9798071,6.012189
112.5514,77.32152,-1.954193,0.9799718,6.012189
112.6023,76.05004,-1.996249,0.9798071,6.012189
112.6534,86.34908,-2.03741,0.9798071,6.012189
112.7016,109.2358,-2.048147,0.9798071,6.012189
112.7523,108.0915,-2.053516,0.9799718,6.012189
112.8018,105.6757,-2.055306,0.9796425,6.012189
112.8514,100.3354,-2.052621,0.9798071,6.012189
112.9032,96.13953,-2.040989,0.9799718,6.00573
112.9516,94.99519,-2.032041,0.9798071,6.012189
113.0012,94.74089,-2.032936,0.9798071,6.012189
113.0519,94.10515,-2.03383,0.9798071,6.00573
113.1016,85.84048,-2.039199,0.9798071,6.00573
113.1524,83.17036,-2.045463,0.9798071,6.00573
113.2023,81.13599,-2.049937,0.9798071,6.00573
113.2517,78.97446,-2.054411,0.9799718,6.00573
113.3023,78.59301,-2.054411,0.9798071,5.99927
113.352,79.99165,-2.052621,0.9798071,6.00573
113.4029,109.4901,-2.047252,0.9796425,6.00573
113.4522,107.2015,-2.028462,0.9796425,6.00573
113.5016,103.0055,-2.01146,0.9798071,6.00573
113.5512,99.31824,-1.991775,0.9798071,6.012189
113.6023,95.37663,-1.964036,0.9798071,6.00573
113.6533,93.72369,-1.943455,0.9798071,5.99927
113.702,93.978,-1.92198,0.9798071,6.00573
113.7516,89.2735,-1.9014,0.9799718,5.99927
113.8015,85.84048,-1.826236,0.9798071,5.99927
113.852,84.82329,-1.723334,0.9796425,6.00573
113.9031,81.13599,-1.446839,0.9798071,5.99927
113.9514,78.97446,-1.360043,0.9798071,6.00573
114.0015,75.16,-1.297407,0.9798071,5.99927
114.0514,80.24594,-1.185557,0.9798071,6.00573
114.1023,107.2015,-1.074601,0.9798071,5.99927
114.153,108.7272,-0.9573818,0.9799718,5.99927
114.2018,101.4798,-0.8804286,0.9798071,5.99927
114.2515,96.13953,-0.8124238,0.9799718,5.99927
114.3013,92.07076,-0.7354706,0.9798071,5.99927
114.3518,92.7065,-0.669255,0.9798071,5.99927
114.4027,93.2151,-0.606619,0.9799718,5.99927
114.4513,87.49342,-0.5753009,0.9798071,5.99927
114.5013,83.55181,-0.5260864,0.9799718,5.99927
114.5519,82.02603,-0.48761,0.9798071,5.99927
114.6017,80.24594,-0.4473437,0.9798071,5.99927
114.6528,77.32152,-0.4178154,0.9796425,5.99927
114.7015,74.26996,-0.3972349,0.9798071,5.992811
114.7521,84.18755,-0.3784438,0.9798071,5.992811
114.8012,106.4386,-0.3533896,0.9798071,5.99927
114.8513,106.9472,-0.3444415,0.9799718,5.99927
114.9022,97.66531,-0.3435467,0.9799718,5.992811
114.952,92.83366,-0.3515998,0.9798071,5.99927
115.0022,91.18073,-0.3641272,0.9796425,5.99927
115.0522,91.81647,-0.3757596,0.9798071,5.992811
115.1022,92.45221,-0.4115518,0.9799718,5.992811
115.153,89.14634,-0.450923,0.9798071,5.992811
115.2017,83.04321,-0.4795569,0.9798071,5.992811
115.2522,81.64457,-0.5189281,0.9798071,5.992811
115.302,80.37309,-0.5520357,0.9799718,5.992811
115.3522,77.32152,-0.6057239,0.9798071,5.992811
115.4034,81.77173,-0.7131006,0.9798071,5.992811
115.4515,94.48659,-0.770368,0.9798071,5.992811
115.5014,107.3286,-0.802581,0.9798071,5.992811
115.5515,105.4214,-0.8410574,0.9798071,5.992811
115.6022,98.04675,-0.869691,0.9798071,5.992811
115.653,94.2323,-0.8759549,0.9798071,5.992811
115.7015,92.83366,-0.9171156,0.9798071,5.986352
115.7512,92.96081,-0.9555923,0.9798071,5.986352
115.8022,92.96081,-0.9887,0.9799718,5.986352
115.8517,90.29069,-1.016439,0.9798071,5.992811
115.9022,83.29751,-1.082654,0.9798071,5.986352
115.9522,82.15317,-1.139922,0.9798071,5.992811
116.002,79.61021,-1.228507,0.9796425,5.992811
116.0512,77.06723,-1.372571,0.9798071,5.986352
116.1022,75.03284,-1.433417,0.9798071,5.986352
116.1526,97.28386,-1.488001,0.9798071,5.986352
116.2021,108.2186,-1.51216,0.9798071,5.986352
116.2514,106.0571,-1.527372,0.9798071,5.986352
116.3012,103.5141,-1.577481,0.9799718,5.986352
116.3512,97.41101,-1.621326,0.9798071,5.986352
116.4022,94.48659,-1.665171,0.9798071,5.986352
116.4518,93.85085,-1.743914,0.9798071,5.986352
116.5015,93.72369,-1.842342,0.9799718,5.986352
116.5522,87.74771,-1.866502,0.9798071,5.986352
116.602,84.0604,-1.887978,0.9798071,5.986352
116.6528,80.88168,-1.918401,0.9798071,5.979893
116.7016,78.72016,-1.94256,0.9798071,5.986352
116.7512,78.08442,-1.955088,0.9798071,5.986352
116.8015,76.55863,-1.996249,0.9798071,5.979893
116.8522,76.68578,-2.048147,0.9798071,5.979893
116.9032,105.2942,-2.068728,0.9798071,5.986352
116.9513,107.71,-2.078571,0.9796425,5.986352
117.0016,103.0055,-2.08215,0.9798071,5.986352
117.0512,99.69969,-2.091993,0.9798071,5.979893
117.1021,96.01237,-2.092887,0.9799718,5.979893
117.1526,94.48659,-2.093782,0.9798071,5.979893
117.2012,93.85085,-2.098256,0.9796425,5.979893
117.2523,91.30788,-2.097362,0.9796425,5.979893
117.3018,84.3147,-2.091993,0.9798071,5.979893
117.3515,82.40748,-2.087519,0.9798071,5.986352
117.4027,80.24594,-2.079465,0.9798071,5.979893
117.4514,78.97446,-2.066043,0.9798071,5.979893
117.5015,75.41429,-2.058885,0.9798071,5.979893
117.5517,74.65141,-2.045463,0.9798071,5.979893
117.6012,90.41783,-2.016829,0.9798071,5.979893
117.6523,109.363,-1.991775,0.9796425,5.973434
117.7016,107.5829,-1.964931,0.9799718,5.979893
117.7523,101.8612,-1.94256,0.9798071,5.973434
117.8021,97.9196,-1.928244,0.9798071,5.979893
117.8521,95.37663,-1.911242,0.9798071,5.973434
117.9022,92.45221,-1.766284,0.9798071,5.973434
117.9522,92.32506,-1.51395,0.9798071,5.973434
118.0018,86.98483,-1.417311,0.9796425,5.979893
118.0518,83.67896,-1.347516,0.9798071,5.973434
118.1012,81.89888,-1.279511,0.9796425,5.973434
118.1525,80.50024,-1.178398,0.9798071,5.973434
118.2025,78.21156,-1.107709,0.9798071,5.973434
118.2523,74.01566,-1.070127,0.9796425,5.973434
118.3012,75.28716,-1.008386,0.9798071,5.979893
118.352,104.7856,-0.9081677,0.9796425,5.973434
118.4027,107.3286,-0.8276352,0.9798071,5.973434
118.4515,102.497,-0.7524717,0.9798071,5.973434
118.5014,97.66531,-0.6960993,0.9798071,5.973434
118.5513,92.45221,-0.6048292,0.9798071,5.973434
118.6023,91.30788,-0.5761956,0.9796425,5.973434
118.6523,91.68932,-0.536824,0.9798071,5.973434
118.7023,92.45221,-0.4938735,0.9798071,5.966975
118.7523,83.17036,-0.4625554,0.9798071,5.966975
118.8023,82.66177,-0.4536076,0.9798071,5.973434
118.8523,81.64457,-0.4536076,0.9799718,5.966975
118.9024,79.10161,-0.4688193,0.9798071,5.966975
118.952,75.54144,-0.5010322,0.9799718,5.973434
119.0015,83.29751,-0.5278763,0.9798071,5.973434
119.0515,107.3286,-0.5627734,0.9798071,5.966975
119.1025,106.6929,-0.5824592,0.9898543,5.966975
119.1522,101.0983,-0.6075137,0.9898543,5.966975
119.202,95.24948,-0.637042,0.9896896,5.966975
119.2518,91.43503,-0.6585173,0.9896896,5.966975
119.3015,91.56216,-0.710416,0.9898543,5.966975
119.3522,92.07076,-0.7811056,0.9900191,5.973434
119.4028,92.45221,-0.7945275,0.9896896,5.973434
119.4522,83.93326,-0.8392679,0.9896896,5.966975
119.5022,81.39028,-0.8956403,0.9898543,5.966975
119.5523,79.73734,-0.9412754,0.9898543,5.966975
119.6016,77.57583,-0.970804,0.9896896,5.966975
119.6523,74.26996,-1.053126,0.9898543,5.966975
119.7021,95.24948,-1.142606,0.9898543,5.966975
119.7521,107.5829,-1.216875,0.9898543,5.966975
119.8021,107.3286,-1.300986,0.9896896,5.966975
119.8525,104.6585,-1.324251,0.9896896,5.966975
119.9034,95.63092,-1.370781,0.9896896,5.966975
119.9516,92.96081,-1.383308,0.9896896,5.966975
120.0023,93.08795,-1.419995,0.9898543,5.960516
120.0523,93.978,-1.496054,0.9898543,5.966975
120.1023,90.16354,-1.594482,0.9898543,5.960516
120.1523,84.18755,-1.649065,0.9898543,5.960516
120.202,81.89888,-1.700964,0.9896896,5.960516
120.252,79.73734,-1.732282,0.9898543,5.960516
120.3018,77.06723,-1.812814,0.9900191,5.960516
120.3517,74.26996,-1.887978,0.9896896,5.960516
120.4028,81.39028,-1.906768,0.9896896,5.960516
120.4513,106.0571,-1.937192,0.9798071,5.960516
120.502,108.2186,-1.941666,0.9798071,5.960516
120.552,104.7856,-1.971194,0.9798071,5.960516
120.6013,100.4626,-2.038304,0.9798071,5.960516
120.6526,95.50377,-2.048147,0.9798071,5.960516
120.7013,93.34225,-2.052621,0.9798071,5.960516
120.7518,92.7065,-2.065149,0.9798071,5.960516
120.8015,92.45221,-2.071412,0.9798071,5.960516
120.8518,90.29069,-2.077676,0.9798071,5.960516
120.9031,81.89888,-2.101835,0.9796425,5.954056
120.9524,80.50024,-2.138522,0.9798071,5.954056
121.0022,77.83012,-2.164472,0.9798071,5.960516
121.0523,76.17719,-2.255742,0.9798071,5.954056
121.1021,74.90571,-2.335379,0.9799718,5.954056
121.1529,95.37663,-2.373856,0.9798071,5.954056
121.2016,108.8544,-2.364013,0.9798071,5.954056
121.2519,107.3286,-2.343432,0.9796425,5.960516
121.3017,102.3698,-2.322852,0.9796425,5.954056
121.3517,98.42819,-2.291534,0.9799718,5.954056
121.403,93.978,-2.239635,0.9798071,5.954056
121.4522,92.96081,-2.215476,0.9798071,5.954056
121.5017,92.57936,-2.17342,0.9798071,5.954056
121.5515,87.49342,-2.135838,0.9798071,5.954056
121.6024,82.66177,-2.095572,0.9798071,5.954056
121.6529,80.62739,-2.052621,0.9798071,5.954056
121.7024,79.48306,-2.022198,0.9798071,5.954056
121.7517,78.33871,-1.953298,0.9798071,5.954056
121.8015,74.77856,-1.818183,0.9798071,5.954056
121.8522,73.76136,-1.726018,0.9798071,5.954056
121.9029,107.2015,-1.622221,0.9798071,5.954056
121.9517,108.3458,-1.481737,0.9798071,5.954056
122.0017,105.0399,-1.360043,0.9798071,5.954056
122.0522,97.66531,-1.267879,0.9798071,5.947598
122.1017,93.59654,-1.123815,0.9798071,5.947598
122.1527,92.07076,-1.029861,0.9799718,5.947598
122.2014,92.32506,-0.9269584,0.9796425,5.947598
122.2524,91.94361,-0.8589533,0.9798071,5.947598
122.3019,85.33189,-0.7828951,0.9798071,5.947598
122.3522,82.66177,-0.729207,0.9798071,5.947598
122.4035,79.61021,-0.6710448,0.9798071,5.947598
122.4517,77.95727,-0.6137773,0.9798071,5.947598
122.5024,75.41429,-0.5967761,0.9798071,5.947598
122.552,73.88851,-0.5815644,0.9798071,5.947598
122.6017,93.72369,-0.5744061,0.9798071,5.947598
122.6532,106.0571,-0.5717216,0.9798071,5.947598
122.7017,103.0055,-0.5761956,0.9798071,5.947598
122.7515,96.39381,-0.5815644,0.9798071,5.947598
122.8015,91.81647,-0.5869333,0.9798071,5.947598
122.8522,89.2735,-0.5985656,0.9798071,5.947598
122.9035,90.79928,-0.6048292,0.9796425,5.941138
122.9522,91.94361,-0.6218307,0.9798071,5.947598
123.0025,83.55181,-0.6522537,0.9798071,5.947598
123.0519,81.00883,-0.6799929,0.9798071,5.947598
123.1016,79.86449,-0.710416,0.9798071,5.947598
123.1527,75.54144,-0.7417341,0.9796425,5.947598
123.2025,74.01566,-0.769473,0.9799718,5.941138
123.2523,76.55863,-0.8097392,0.9798071,5.947598
123.3014,101.6069,-0.9242742,0.9798071,5.947598
123.3517,107.2015,-0.9654352,0.9796425,5.947598
123.4025,102.497,-0.9770676,0.9796425,5.941138
123.4519,97.41101,-1.010175,0.9798071,5.941138
123.5017,92.45221,-1.024492,0.9798071,5.941138
123.5519,91.68932,-1.053126,0.9798071,5.947598
123.6019,92.7065,-1.092497,0.9798071,5.941138
123.6527,92.7065,-1.110393,0.9796425,5.941138
123.7021,84.82329,-1.141711,0.9799718,5.941138
123.7517,82.53461,-1.186451,0.9798071,5.941138
123.802,79.99165,-1.275932,0.9796425,5.941138
123.8524,78.84731,-1.312619,0.9798071,5.941138
123.9024,74.52426,-1.380624,0.9799718,5.941138
123.9523,81.39028,-1.463841,0.9798071,5.941138
124.0024,101.7341,-1.578375,0.9798071,5.934679
124.0518,109.7444,-1.635643,0.9796425,5.941138
124.1023,104.9128,-1.664277,0.9798071,5.934679
124.1523,99.95398,-1.708122,0.9798071,5.934679
124.2018,96.01237,-1.758231,0.9798071,5.941138
124.2515,93.46941,-1.863818,0.9796425,5.934679
124.3024,94.2323,-1.888872,0.9798071,5.934679
124.3518,93.978,-1.904084,0.9798071,5.941138
124.4031,86.60338,-1.939876,0.9798071,5.934679
124.4517,83.55181,-1.948824,0.9796425,5.934679
124.5016,80.50024,-1.974773,0.9798071,5.934679
124.5516,77.95727,-2.003407,0.9798071,5.934679
124.6015,76.55863,-2.03741,0.9796425,5.934679
124.6536,82.02603,-2.093782,0.9796425,5.934679
124.7021,108.2186,-2.148365,0.9798071,5.934679
124.752,108.7272,-2.169841,0.9798071,5.92822
124.8013,104.0227,-2.198474,0.9796425,5.934679
124.8523,102.7513,-2.251268,0.9798071,5.934679
