t_sec,abp_mmHg,resp_arbunit,spo2_unitless,scon_muS
0,94.10515,-1.120807,0.9799718,4.739734
0.04931321,92.19792,-1.158509,0.9798071,4.733274
0.1013353,90.29069,-1.19244,0.9798071,4.733274
0.1501157,88.00201,-1.150968,0.9799718,4.739734
0.2001178,86.73053,-1.056713,0.9799718,4.733274
0.2496879,84.569,-1.083104,0.9799718,4.739734
0.2993488,80.37309,-1.203751,0.9798071,4.739734
0.3507409,97.79247,-1.256533,0.9798071,4.733274
0.4002244,138.9886,-1.252763,0.9798071,4.733274
0.450074,134.2841,-1.241452,0.9798071,4.733274
0.4994273,128.6896,-1.248994,0.9798071,4.739734
0.5503347,126.4009,-1.203751,0.9798071,4.739734
0.6010497,121.5692,-1.109497,0.9798071,4.739734
0.6503327,116.9919,-1.030322,0.9798071,4.739734
0.6998228,116.9919,-0.9775403,0.9799718,4.739734
0.7493673,115.7204,-0.8908259,0.9798071,4.739734
0.800364,106.82,-0.7739491,0.9798071,4.739734
0.8511578,101.6069,-0.5100372,0.9799718,4.739734
0.8994344,99.19109,-0.2875962,0.9799718,4.739734
0.9503747,96.52097,0.01401937,0.9798071,4.733274
0.999734,94.61374,0.1422061,0.9798071,4.733274
1.049307,92.19792,0.2364604,0.9798071,4.739734
1.1004,89.40065,0.3533358,0.9798071,4.733274
1.14944,87.49342,0.4589014,0.9798071,4.733274
1.199204,85.58618,0.5192248,0.9799718,4.733274
1.25035,82.91606,0.5154548,0.9798071,4.733274
1.299374,82.40748,0.5192248,0.9798071,4.733274
1.350696,106.3114,0.5720069,0.9798071,4.726816
1.399775,140.1329,0.7265846,0.9798071,4.726816
1.449194,136.0642,0.8623112,0.9798071,4.726816
1.49938,127.6724,0.84723,0.9798071,4.726816
1.550358,123.9851,0.8698511,0.9798071,4.720356
1.600412,116.4833,0.9527956,0.9798071,4.720356
1.650332,113.686,1.016889,0.9798071,4.726816
1.699315,112.9231,1.054591,0.9798071,4.726816
1.750226,109.4901,1.058361,0.9798071,4.726816
1.799546,104.4042,1.024429,0.9798071,4.726816
1.850658,100.2083,0.9452557,0.9798071,4.726816
1.89986,97.28386,0.8962436,0.9799718,4.733274
1.950111,95.75809,0.8510014,0.9798071,4.733274
2.000209,93.34225,0.8095291,0.9798071,4.726816
2.049982,90.67213,0.7529757,0.9798071,4.726816
2.10123,89.14634,0.7378958,0.9798071,4.713897
2.149537,86.47623,0.6285604,0.9799718,4.720356
2.199189,81.77173,0.5720069,0.9799718,4.720356
2.250227,79.3559,0.4852925,0.9798071,4.713897
2.300295,83.55181,0.4287404,0.9799718,4.713897
2.350191,121.4421,0.3872682,0.9798071,4.713897
2.400227,137.59,0.3118636,0.9799718,4.713897
2.450212,125.8923,0.2100693,0.9798071,4.713897
2.50002,123.9851,0.1535159,0.9798071,4.713897
2.550231,114.9575,0.1308948,0.9798071,4.713897
2.60023,111.7788,0.1007338,0.9798071,4.707438
2.650225,111.3974,0.05549162,0.9799718,4.713897
2.69985,111.906,-0.001061821,0.9798071,4.707438
2.750424,102.497,-0.06515516,0.9796425,4.707438
2.799271,98.30104,-0.1594095,0.9799718,4.707438
2.851102,95.88522,-0.2612037,0.9799718,4.707438
2.899301,92.57936,-0.329067,0.9798071,4.707438
2.9497,90.79928,-0.4157815,0.9798071,4.707438
2.999845,90.03638,-0.5024959,0.9798071,4.713897
3.050276,87.49342,-0.6118314,0.9799718,4.707438
3.100908,85.96764,-0.5364283,0.9798071,4.707438
3.149696,84.95044,-0.525117,0.9799718,4.707438
3.199849,80.50024,-0.7965702,0.9799718,4.707438
3.249669,79.3559,-0.917217,0.9798071,4.707438
3.299767,100.3354,-0.973769,0.9798071,4.707438
3.35039,141.5316,-1.003931,0.9798071,4.707438
3.399972,136.0642,-1.060483,0.9798071,4.707438
3.449494,127.1638,-1.162279,0.9796425,4.707438
3.499856,126.4009,-1.226372,0.9798071,4.707438
3.549527,123.2222,-1.237682,0.9799718,4.707438
3.601493,113.0503,-1.267845,0.9799718,4.707438
3.650221,112.5417,-1.305546,0.9798071,4.707438
3.700016,110.1259,-1.313087,0.9799718,4.707438
3.749443,103.7684,-1.316857,0.9799718,4.707438
3.799302,98.6825,-1.309317,0.9798071,4.707438
3.850317,95.63092,-1.279155,0.9798071,4.707438
3.899665,94.10515,-1.19244,0.9798071,4.707438
3.950095,91.18073,-1.169819,0.9798071,4.713897
3.999968,89.5278,-1.109497,0.9799718,4.713897
4.051197,88.12916,-0.9850802,0.9798071,4.707438
4.101169,85.96764,-0.8606635,0.9798071,4.713897
4.149671,81.00883,-0.8531236,0.9798071,4.713897
4.199691,80.62739,-0.8342724,0.9799718,4.720356
4.249693,95.63092,-0.747558,0.9796425,4.720356
4.301149,138.48,-0.5175771,0.9799718,4.720356
4.351137,134.157,-0.3139872,0.9798071,4.720356
4.399764,126.0195,-0.01991297,0.9798071,4.720356
4.449494,122.3321,0.08565262,0.9798071,4.720356
4.499486,121.315,0.2402303,0.9798071,4.713897
4.550817,114.9575,0.342026,0.9798071,4.713897
4.600336,113.3046,0.4438202,0.9798071,4.720356
4.650214,113.3046,0.5267647,0.9798071,4.720356
4.69966,105.5485,0.6021679,0.9799718,4.733274
4.749341,100.3354,0.7265846,0.9798071,4.733274
4.800922,97.02956,0.817069,0.9798071,4.733274
4.851434,94.99519,0.8773924,0.9799718,4.726816
4.89992,92.96081,0.9113234,0.9799718,4.733274
4.949416,91.43503,0.9414858,0.9798071,4.733274
4.999894,89.5278,1.005579,0.9798071,4.733274
5.051045,87.62056,1.133764,0.9798071,4.739734
5.101046,82.40748,1.114913,0.9798071,4.733274
5.149653,82.02603,1.04328,0.9798071,4.733274
5.200448,108.3458,1.001808,0.9798071,4.726816
5.250086,137.7171,0.9678768,0.9798071,4.733274
5.301421,135.8099,0.8887023,0.9798071,4.733274
5.350235,125.7652,0.786908,0.9798071,4.739734
5.399797,122.3321,0.7265846,0.9798071,4.739734
5.449255,114.9575,0.6851124,0.9799718,4.739734
5.500461,113.1774,0.6549514,0.9799718,4.739734
5.550918,113.1774,0.564467,0.9799718,4.746193
5.600784,114.1946,0.5116835,0.9798071,4.746193
5.649292,104.9128,0.5041436,0.9799718,4.746193
5.700167,99.82683,0.4664413,0.9799718,4.752652
5.749626,96.39381,0.4287404,0.9798071,4.752652
5.800675,94.35944,0.372187,0.9796425,4.759111
5.850673,92.83366,0.2892425,0.9798071,4.759111
5.900456,91.81647,0.2138393,0.9798071,4.765571
5.950383,94.74089,0.1912182,0.9798071,4.765571
6.000415,91.43503,0.119585,0.9798071,4.772029
6.050934,90.54498,-0.1594095,0.9798071,4.772029
6.10089,90.41783,-0.4270927,0.9798071,4.772029
6.150401,122.205,-0.4572537,0.9798071,4.772029
6.200206,143.4388,-0.4874161,0.9799718,4.772029
6.249954,139.6244,-0.6005216,0.9799718,4.772029
6.301,133.3941,-0.7324782,0.9798071,4.772029
6.350784,130.0882,-0.7852603,0.9798071,4.778489
6.399324,124.2394,-0.8003415,0.9799718,4.778489
6.450435,120.4249,-0.8229626,0.9798071,4.778489
6.500453,119.4077,-0.8682048,0.9798071,4.778489
6.551455,117.3734,-0.8795146,0.9799718,4.778489
6.600694,109.1087,-0.8908259,0.9798071,4.784948
6.649427,106.6929,-0.909677,0.9798071,4.784948
6.70026,103.6413,-0.9285268,0.9799718,4.784948
6.749886,100.9712,-0.9322981,0.9799718,4.784948
6.801203,99.31824,-0.9624591,0.9798071,4.784948
6.850271,97.66531,-0.9813103,0.9796425,4.784948
6.900204,95.12233,-0.943608,0.9798071,4.784948
6.949359,92.57936,-0.9398381,0.9798071,4.784948
7.000033,88.89205,-1.019011,0.9798071,4.778489
7.050661,91.94361,-1.17736,0.9798071,4.772029
7.100708,114.3218,-1.252763,0.9798071,4.778489
7.150376,141.023,-1.260303,0.9798071,4.778489
7.200148,136.9542,-1.286694,0.9798071,4.778489
7.2502,133.6484,-1.313087,0.9799718,4.778489
7.301158,130.0882,-1.331938,0.9798071,4.772029
7.3507,122.5864,-1.316857,0.9798071,4.772029
7.399375,120.8064,-1.271615,0.9799718,4.772029
7.450165,122.0779,-1.203751,0.9799718,4.772029
7.500154,120.0435,-1.105726,0.9798071,4.772029
7.550997,111.906,-1.015241,0.9799718,4.765571
7.60088,107.0743,-0.9398381,0.9798071,4.765571
7.649918,103.5141,-0.8606635,0.9799718,4.765571
7.700431,101.7341,-0.8003415,0.9798071,4.765571
7.749905,99.69969,-0.6231427,0.9799718,4.772029
7.800905,97.66531,-0.4497138,0.9798071,4.765571
7.850646,95.88522,-0.1367884,0.9798071,4.765571
7.899428,93.72369,0.1045038,0.9798071,4.759111
7.949641,89.0192,0.1572859,0.9798071,4.765571
7.999322,88.7649,0.1987581,0.9799718,4.759111
8.050444,106.6929,0.3005537,0.9799718,4.759111
8.101443,140.8958,0.4174292,0.9798071,4.759111
8.150006,136.0642,0.4626714,0.9798071,4.759111
8.1997,130.9782,0.5795468,0.9798071,4.759111
8.249442,128.3081,0.6662613,0.9799718,4.752652
8.301123,121.6964,0.7680569,0.9798071,4.752652
8.351254,120.1706,0.8359202,0.9796425,4.752652
8.399819,119.7892,0.9000135,0.9799718,4.752652
8.44944,119.2806,0.9377144,0.9799718,4.752652
8.500141,112.5417,0.9942678,0.9798071,4.752652
8.551316,106.9472,1.069671,0.9798071,4.752652
8.601192,104.277,1.099833,0.9798071,4.752652
8.649666,102.3698,1.107373,0.9798071,4.752652
8.699512,101.0983,1.069671,0.9798071,4.752652
8.750441,98.80965,0.9603355,0.9799718,4.752652
8.800398,97.02956,0.9452557,0.9798071,4.752652
8.851021,94.61374,0.982958,0.9798071,4.752652
8.899785,92.57936,0.8510014,0.9798071,4.759111
8.94937,87.87486,0.6888824,0.9798071,4.759111
8.999685,99.19109,0.6323303,0.9798071,4.759111
9.051316,135.937,0.6172491,0.9798071,4.759111
9.101144,134.157,0.560697,0.9798071,4.759111
9.149526,128.5624,0.5003737,0.9798071,4.759111
9.199395,125.3837,0.4211991,0.9798071,4.765571
9.250524,119.2806,0.368417,0.9798071,4.759111
9.301366,116.6105,0.3118636,0.9798071,4.759111
9.351146,118.1362,0.2402303,0.9796425,4.765571
9.39966,117.7548,0.1949881,0.9798071,4.765571
9.449518,112.9231,0.1535159,0.9799718,4.765571
9.49952,106.3114,0.09696386,0.9798071,4.765571
9.550522,103.0055,0.02532923,0.9798071,4.765571
9.600377,101.6069,-0.06515516,0.9798071,4.772029
9.650187,98.1739,-0.2121916,0.9799718,4.772029
9.700178,95.37663,-0.3893904,0.9799718,4.772029
9.749392,93.34225,-0.4308627,0.9798071,4.772029
9.80039,92.45221,-0.4157815,0.9798071,4.765571
9.850724,88.38345,-0.4497138,0.9798071,4.765571
9.899427,85.45904,-0.747558,0.9798071,4.759111
9.949431,91.05358,-0.8644348,0.9798071,4.759111
9.999428,133.2669,-0.9021357,0.9798071,4.752652
10.05031,139.3701,-0.9059057,0.9798071,4.752652
10.10049,136.9542,-0.9398381,0.9798071,4.752652
10.14991,131.614,-1.019011,0.9799718,4.752652
10.20018,128.3081,-1.052943,0.9798071,4.759111
10.24962,121.4421,-1.083104,0.9798071,4.752652
10.30065,118.6448,-1.105726,0.9798071,4.759111
10.35064,117.7548,-1.135888,0.9798071,4.759111
10.40035,115.339,-1.143428,0.9798071,4.752652
10.4503,108.2186,-1.166049,0.9799718,4.752652
10.5003,106.82,-1.19621,0.9798071,4.752652
10.55151,104.277,-1.215061,0.9798071,4.752652
10.60122,100.844,-1.207521,0.9798071,4.752652
10.64976,98.80965,-1.199981,0.9798071,4.752652
10.7001,95.63092,-1.211291,0.9798071,4.752652
10.7503,93.72369,-1.203751,0.9798071,4.752652
10.80133,91.43503,-1.064253,0.9798071,4.746193
10.85092,90.03638,-0.9624591,0.9799718,4.746193
10.89979,85.96764,-0.9662291,0.9799718,4.746193
10.9505,88.63776,-0.9511479,0.9798071,4.746193
11.00035,103.5141,-0.8870559,0.9798071,4.746193
11.0509,138.2257,-0.8493537,0.9798071,4.746193
11.10063,134.0298,-0.7928002,0.9798071,4.746193
11.1503,132.1226,-0.5854404,0.9798071,4.746193
11.19974,129.071,-0.4497138,0.9799718,4.746193
11.25048,122.3321,-0.2348127,0.9799718,4.746193
11.3008,119.662,0.01778932,0.9798071,4.746193
11.35109,120.1706,0.119585,0.9798071,4.739734
11.39987,116.4833,0.2440003,0.9798071,4.739734
11.45037,110.3802,0.3533358,0.9798071,4.739734
11.50011,109.4901,0.4400503,0.9798071,4.739734
11.5513,106.4386,0.5229948,0.9796425,4.733274
11.60109,102.2427,0.598398,0.9798071,4.733274
11.6498,100.844,0.6888824,0.9798071,4.739734
11.6998,97.66531,0.786908,0.9798071,4.739734
11.74938,94.99519,0.8057591,0.9798071,4.733274
11.80093,93.08795,0.8547713,0.9798071,4.733274
11.85042,90.67213,1.005579,0.9796425,4.726816
11.9005,87.23911,0.982958,0.9796425,4.733274
11.95042,85.58618,0.9904979,0.9798071,4.720356
12.00038,96.90242,0.9301745,0.9796425,4.733274
12.05112,132.3769,0.8962436,0.9798071,4.746193
12.10112,138.6072,0.8283803,0.9798071,4.726816
12.14967,128.3081,0.7755968,0.9798071,4.720356
12.19938,125.0023,0.7001936,0.9798071,4.733274
12.25013,122.9679,0.6097092,0.9798071,4.726816
12.3015,117.7548,0.4928324,0.9798071,4.720356
12.3511,116.8647,0.4438202,0.9798071,4.726816
12.39992,115.8476,0.368417,0.9798071,4.726816
12.44937,108.3458,0.3269448,0.9798071,4.726816
12.49942,105.0399,0.149746,0.9798071,4.726816
12.55115,101.8612,0.01778932,0.9798071,4.720356
12.60092,99.57254,-0.05761387,0.9798071,4.726816
12.65025,97.02956,-0.1594095,0.9798071,4.720356
12.70042,95.37663,-0.302676,0.9798071,4.720356
12.75,93.08795,-0.4044716,0.9798071,4.726816
12.80047,91.81647,-0.4195528,0.9799718,4.720356
12.85075,88.7649,-0.3969303,0.9799718,4.726816
12.89992,86.60338,-0.5138072,0.9799718,4.726816
12.94965,83.17036,-0.8229626,0.9799718,4.733274
12.99937,83.17036,-0.913447,0.9799718,4.733274
13.05094,138.0986,-0.9850802,0.9798071,4.733274
13.10122,137.8443,-1.003931,0.9798071,4.733274
13.15042,131.3597,-1.037862,0.9799718,4.733274
13.1995,127.2909,-1.120807,0.9798071,4.733274
13.25022,125.2566,-1.135888,0.9798071,4.739734
13.30114,117.7548,-1.139658,0.9798071,4.739734
13.35141,116.6105,-1.120807,0.9798071,4.746193
13.40012,116.6105,-1.030322,0.9798071,4.752652
13.44985,111.6517,-0.9322981,0.9798071,4.759111
13.49966,108.3458,-0.8003415,0.9798071,4.765571
13.55132,103.7684,-0.4384026,0.9798071,4.765571
13.60137,99.95398,-0.03499277,0.9798071,4.772029
13.6502,98.9368,0.176137,0.9798071,4.778489
13.69941,94.74089,0.338256,0.9798071,4.784948
13.74996,93.34225,0.4702113,0.9798071,4.791407
13.80089,91.56216,0.5870881,0.9798071,4.797866
13.85141,90.29069,0.6813424,0.9799718,4.804326
13.89991,88.00201,0.7944479,0.9798071,4.810784
13.9497,85.58618,0.7944479,0.9799718,4.817244
13.99938,94.48659,0.8246089,0.9798071,4.830162
14.05098,135.5556,0.8736225,0.9798071,4.823703
14.10091,136.9542,0.8585413,0.9798071,4.836621
14.14966,130.4697,0.790678,0.9798071,4.843081
14.20022,126.9095,0.7718268,0.9796425,4.84954
14.24975,123.8579,0.7605169,0.9798071,4.855999
14.30091,119.662,0.7492057,0.9798071,4.855999
14.35089,118.5177,0.7152734,0.9798071,4.868917
14.39966,117.6276,0.6134791,0.9798071,4.875376
14.44958,110.6345,0.5192248,0.9796425,4.875376
14.50009,108.6001,0.4966037,0.9799718,4.881835
14.55091,104.4042,0.4702113,0.9798071,4.888295
14.6009,101.4798,0.4287404,0.9798071,4.894753
14.64939,99.57254,0.368417,0.9798071,4.901213
14.70017,97.9196,0.2628514,0.9798071,4.901213
14.75012,96.13953,0.1723671,0.9798071,4.907672
14.80066,94.48659,0.2289205,0.9798071,4.914131
14.8512,89.78209,0.1384361,0.9799718,4.914131
14.89991,87.74771,0.04418037,0.9798071,4.914131
14.94938,98.55534,-0.2310427,0.9796425,4.92059
14.99938,136.6999,-0.3893904,0.9798071,4.933509
15.05038,138.48,-0.4497138,0.9798071,4.92705
15.10137,132.6312,-0.5364283,0.9798071,4.92705
15.15017,128.6896,-0.751328,0.9798071,4.933509
15.19973,126.7823,-0.8267326,0.9799718,4.933509
15.25049,121.6964,-0.8342724,0.9798071,4.933509
15.30124,119.7892,-0.8719748,0.9798071,4.939968
15.3509,119.2806,-0.9247568,0.9798071,4.939968
15.39965,118.5177,-0.9586892,0.9798071,4.946427
15.45061,108.8544,-1.011471,0.9798071,4.946427
15.50057,105.8028,-1.071795,0.9798071,4.946427
15.55065,103.8956,-1.147198,0.9796425,4.946427
15.60132,101.8612,-1.19621,0.9796425,4.952886
15.64998,98.80965,-1.290466,0.9796425,4.952886
15.70034,96.77527,-1.298006,0.9798071,4.952886
15.74961,94.86804,-1.248994,0.9798071,4.959345
15.8006,93.46941,-1.237682,0.9798071,4.952886
15.8506,88.7649,-1.305546,0.9798071,4.959345
15.89978,97.28386,-1.37718,0.9798071,4.959345
15.94958,122.7136,-1.429962,0.9798071,4.959345
16.00047,140.1329,-1.441272,0.9798071,4.959345
16.05165,135.4285,-1.445043,0.9798071,4.965805
16.10073,131.1054,-1.475204,0.9798071,4.965805
16.15044,128.9439,-1.426192,0.9798071,4.965805
16.20038,121.6964,-1.365869,0.9796425,4.972263
16.25014,120.5521,-1.260303,0.9796425,4.972263
16.30077,120.4249,-1.101956,0.9798071,4.978723
16.35048,114.8304,-1.011471,0.9798071,4.978723
16.40014,109.6173,-0.909677,0.9798071,4.985182
16.44977,106.1843,-0.7965702,0.9799718,4.985182
16.50041,105.2942,-0.4572537,0.9798071,4.985182
16.55149,102.2427,-0.05007397,0.9798071,4.991641
16.60069,99.82683,0.06303152,0.9796425,4.991641
16.65064,97.28386,0.2741627,0.9798071,4.9981
16.70038,95.75809,0.4626714,0.9798071,4.991641
16.75029,93.46941,0.5493858,0.9798071,4.9981
16.80149,89.14634,0.5795468,0.9799718,4.9981
16.85098,92.32506,0.6813424,0.9799718,5.00456
16.90043,116.9919,0.783138,0.9799718,5.00456
16.9502,138.9886,0.7982179,0.9798071,5.00456
16.99985,134.0298,0.7492057,0.9798071,5.00456
17.05117,129.9611,0.7793667,0.9798071,5.00456
17.10058,127.1638,0.9527956,0.9799718,5.011019
17.14987,120.9335,1.073442,0.9796425,5.011019
17.19972,119.4077,1.201628,0.9799718,5.011019
17.24982,119.4077,1.23179,0.9798071,5.011019
17.3013,114.7032,1.118685,0.9796425,5.011019
17.35099,109.9987,0.9490256,0.9798071,5.011019
17.39972,106.9472,0.817069,0.9798071,5.017478
17.44969,103.1327,0.786908,0.9799718,5.023937
17.4998,101.0983,0.7378958,0.9799718,5.023937
17.55127,99.69969,0.7190447,0.9798071,5.023937
17.60091,98.80965,0.6624913,0.9799718,5.023937
17.64959,96.13953,0.6134791,0.9799718,5.023937
17.7002,91.56216,0.5041436,0.9798071,5.023937
17.74989,92.32506,0.4362803,0.9798071,5.030396
17.80064,118.0091,0.4136592,0.9798071,5.030396
17.85064,139.3701,0.3759569,0.9799718,5.030396
17.90019,134.2841,0.2930138,0.9796425,5.036855
17.94961,129.3253,0.2251492,0.9798071,5.036855
17.99961,125.638,0.1346648,0.9798071,5.036855
18.05118,121.4421,0.1346648,0.9799718,5.043315
18.10062,118.8991,0.1045038,0.9798071,5.043315
18.15043,120.0435,0.04418037,0.9796425,5.043315
18.20002,119.4077,-0.3328384,0.9798071,5.049773
18.24991,109.1087,-0.4421739,0.9798071,5.056233
18.30095,105.5485,-0.468565,0.9798071,5.049773
18.3512,104.1499,-0.5326583,0.9796425,5.062692
18.40013,101.2255,-0.751328,0.9796425,5.062692
18.45026,99.95398,-0.8078814,0.9798071,5.069151
18.49992,99.06393,-0.8003415,0.9798071,5.07561
18.55043,96.52097,-0.8041115,0.9798071,5.07561
18.60095,91.18073,-0.913447,0.9798071,5.082069
18.65061,89.5278,-1.056713,0.9799718,5.082069
18.70056,124.1122,-1.135888,0.9798071,5.082069
18.74998,142.1673,-1.18867,0.9798071,5.088529
18.80156,138.9886,-1.279155,0.9796425,5.094988
18.85126,133.1398,-1.331938,0.9799718,5.094988
18.89988,130.8511,-1.37718,0.9798071,5.101447
18.94998,125.3837,-1.399801,0.9798071,5.101447
19.00006,121.4421,-1.407341,0.9798071,5.101447
19.05061,120.5521,-1.433732,0.9798071,5.107906
19.1007,120.5521,-1.437502,0.9799718,5.107906
19.15006,111.906,-1.448813,0.9798071,5.114365
19.20023,107.3286,-1.452583,0.9798071,5.114365
19.24975,105.0399,-1.441272,0.9798071,5.120825
19.30119,102.7513,-1.445043,0.9798071,5.114365
19.35044,100.7169,-1.452583,0.9796425,5.120825
19.40045,98.1739,-1.37718,0.9796425,5.127283
19.44961,96.13953,-1.248994,0.9798071,5.120825
19.50035,94.2323,-1.1849,0.9798071,5.120825
19.55075,89.5278,-1.128347,0.9796425,5.127283
19.60059,113.3046,-1.030322,0.9798071,5.127283
19.6506,140.5144,-0.917217,0.9798071,5.127283
19.7006,137.7171,-0.8531236,0.9799718,5.127283
19.75046,134.0298,-0.6646149,0.9796425,5.127283
19.80159,130.724,-0.2913661,0.9798071,5.127283
19.85136,123.6036,0.04041042,0.9798071,5.127283
19.90011,122.205,0.2176092,0.9796425,5.127283
19.95046,120.9335,0.372187,0.9796425,5.127283
20.00012,120.6792,0.4966037,0.9798071,5.127283
20.05095,111.1431,0.5870881,0.9798071,5.120825
20.10092,107.5829,0.598398,0.9798071,5.127283
20.15049,105.6757,0.6700312,0.9796425,5.120825
20.2002,103.387,0.6587213,0.9798071,5.127283
20.25039,101.6069,0.6134791,0.9798071,5.127283
20.30125,98.80965,0.8095291,0.9798071,5.120825
20.35081,97.41101,1.069671,0.9796425,5.120825
20.39959,93.08795,1.126225,0.9798071,5.120825
20.45046,91.18073,1.092292,0.9798071,5.120825
20.50016,91.56216,1.129994,0.9798071,5.120825
20.55162,120.0435,1.179007,0.9798071,5.114365
20.60079,139.7515,1.133764,0.9798071,5.114365
20.64945,130.0882,0.9942678,0.9798071,5.114365
20.70057,126.528,0.7680569,0.9798071,5.114365
20.74946,119.7892,0.5682369,0.9798071,5.107906
20.80097,118.1362,0.5795468,0.9798071,5.107906
20.85068,118.1362,0.5795468,0.9798071,5.107906
20.90046,118.0091,0.590858,0.9796425,5.101447
20.94978,110.3802,0.5833181,0.9798071,5.107906
21.00043,105.6757,0.4815225,0.9796425,5.101447
21.05129,102.2427,0.4400503,0.9798071,5.101447
21.10057,99.95398,0.3834982,0.9798071,5.107906
21.14989,98.80965,0.3156349,0.9796425,5.101447
21.19979,98.55534,0.2817026,0.9799718,5.101447
21.24957,96.90242,0.2138393,0.9798071,5.101447
21.30095,91.30788,-0.1594095,0.9796425,5.101447
21.35106,91.18073,-0.464795,0.9796425,5.101447
21.40055,111.7788,-0.5477381,0.9798071,5.101447
21.45007,140.1329,-0.7249369,0.9798071,5.107906
21.49967,138.6072,-0.8116513,0.9798071,5.101447
21.55091,133.6484,-0.917217,0.9798071,5.107906
21.60128,127.2909,-0.9888502,0.9798071,5.107906
21.65038,120.9335,-1.026552,0.9798071,5.107906
21.70036,119.1534,-1.101956,0.9798071,5.107906
21.75028,118.8991,-1.237682,0.9796425,5.114365
21.80134,112.2874,-1.335708,0.9796425,5.114365
21.85153,107.2015,-1.362099,0.9798071,5.114365
21.89985,105.4214,-1.369639,0.9796425,5.114365
21.94982,101.4798,-1.38849,0.9796425,5.114365
21.99958,99.44539,-1.433732,0.9798071,5.120825
22.05084,97.66531,-1.471434,0.9798071,5.120825
22.10162,96.90242,-1.422422,0.9796425,5.120825
22.15016,94.35944,-1.441272,0.9796425,5.127283
22.20011,89.90925,-1.558149,0.9798071,5.127283
22.25011,109.363,-1.678794,0.9798071,5.127283
22.30142,141.1501,-1.750428,0.9796425,5.127283
22.35113,139.3701,-1.77682,0.9798071,5.133743
22.40062,136.5728,-1.840912,0.9798071,5.133743
22.45011,132.3769,-1.916317,0.9798071,5.133743
22.50029,129.5796,-1.916317,0.9798071,5.140202
22.55138,122.5864,-1.863533,0.9796425,5.133743
22.60111,121.4421,-1.79567,0.9798071,5.140202
22.64983,120.9335,-1.708955,0.9798071,5.146661
22.69958,112.1602,-1.59585,0.9796425,5.15312
22.75031,106.9472,-1.429962,0.9798071,5.15312
22.80063,104.5313,-1.19244,0.9796425,5.15312
22.85064,101.3526,-1.071795,0.9796425,5.15312
22.90064,99.57254,-0.9662291,0.9796425,5.159579
22.95033,97.66531,-0.8116513,0.9798071,5.166039
23.00032,95.75809,-0.4534838,0.9798071,5.166039
23.05164,94.2323,-0.2348127,0.9798071,5.172498
23.10158,88.00201,-0.1367884,0.9798071,5.172498
23.15067,105.1671,0.09696386,0.9798071,5.159579
23.20006,140.3873,0.3269448,0.9798071,5.159579
23.24978,138.6072,0.4702113,0.9798071,5.159579
23.30118,134.2841,0.6021679,0.9798071,5.159579
23.35118,130.8511,0.594628,0.9798071,5.166039
23.39962,123.3493,0.6549514,0.9798071,5.166039
23.44962,121.4421,0.6964236,0.9798071,5.166039
23.49961,120.1706,0.7718268,0.9798071,5.166039
23.55106,118.5177,0.9000135,0.9796425,5.159579
23.60066,109.7444,1.077212,0.9798071,5.159579
23.65032,107.2015,1.216709,0.9799718,5.159579
23.70031,103.7684,1.299653,0.9798071,5.166039
23.74993,101.2255,1.359975,0.9796425,5.166039
23.80135,99.95398,1.341126,0.9798071,5.166039
23.85093,99.57254,1.258181,0.9799718,5.159579
23.89961,96.64812,1.160155,0.9796425,5.159579
23.94963,91.94361,0.9716467,0.9796425,5.166039
24.00062,93.85085,0.8736225,0.9798071,5.159579
24.05128,126.0195,0.8132991,0.9798071,5.159579
24.10123,133.5212,0.6888824,0.9798071,5.159579
24.14956,130.0882,0.624789,0.9798071,5.159579
24.20003,127.1638,0.5079135,0.9798071,5.15312
24.25058,119.4077,0.4438202,0.9799718,5.159579
24.30142,116.229,0.372187,0.9799718,5.159579
24.35105,116.229,0.2779326,0.9798071,5.15312
24.4003,117.3734,0.149746,0.9796425,5.15312
24.45071,108.7272,0.1045038,0.9799718,5.15312
24.50032,107.9643,0.05172167,0.9798071,5.15312
24.55143,103.5141,-0.03876272,0.9798071,5.15312
24.60167,98.04675,-0.1858006,0.9798071,5.15312
24.65057,97.28386,-0.3252971,0.9798071,5.159579
24.69965,97.02956,-0.3780806,0.9798071,5.15312
24.74957,94.99519,-0.5100372,0.9798071,5.15312
24.8006,89.90925,-0.8116513,0.9798071,5.15312
24.85117,92.32506,-0.909677,0.9798071,5.15312
24.90034,134.5384,-0.9662291,0.9798071,5.146661
24.94994,142.6759,-0.9926201,0.9798071,5.146661
25.00055,136.5728,-1.037862,0.9796425,5.15312
25.05105,131.1054,-1.158509,0.9798071,5.15312
25.10092,128.0538,-1.215061,0.9798071,5.15312
25.15001,120.1706,-1.245224,0.9798071,5.15312
25.19977,116.8647,-1.260303,0.9796425,5.15312
25.25005,116.229,-1.267845,0.9798071,5.15312
25.3013,111.3974,-1.275385,0.9799718,5.159579
25.35102,105.93,-1.267845,0.9798071,5.159579
25.40039,102.7513,-1.248994,0.9798071,5.159579
25.45007,100.7169,-1.260303,0.9796425,5.166039
25.49981,99.57254,-1.271615,0.9799718,5.166039
25.55109,96.64812,-1.19244,0.9798071,5.166039
25.60091,95.37663,-1.090646,0.9798071,5.166039
25.65005,91.18073,-1.135888,0.9798071,5.166039
25.69988,89.65494,-1.245224,0.9798071,5.172498
25.74955,108.2186,-1.301776,0.9798071,5.172498
25.80138,140.5144,-1.298006,0.9798071,5.172498
25.85054,136.9542,-1.305546,0.9798071,5.172498
25.90054,132.2497,-1.328167,0.9796425,5.172498
25.95067,128.8167,-1.343248,0.9796425,5.172498
26.00054,122.205,-1.335708,0.9796425,5.172498
26.05064,118.5177,-1.316857,0.9798071,5.172498
26.10067,118.8991,-1.286694,0.9798071,5.178957
26.15056,115.0847,-1.241452,0.9796425,5.178957
26.20063,109.363,-1.199981,0.9798071,5.178957
26.2498,104.7856,-1.090646,0.9796425,5.178957
26.30107,101.8612,-1.037862,0.9798071,5.178957
26.35117,99.95398,-1.015241,0.9796425,5.178957
26.40067,98.30104,-0.8644348,0.9798071,5.178957
26.44976,97.28386,-0.5477381,0.9798071,5.178957
26.49991,96.13953,-0.464795,0.9798071,5.172498
26.55085,91.05358,-0.3856205,0.9798071,5.178957
26.60093,97.28386,-0.1669494,0.9798071,5.178957
26.65067,132.504,0.01778932,0.9798071,5.178957
26.70039,141.2773,0.2176092,0.9796425,5.178957
26.75016,132.3769,0.3495659,0.9796425,5.178957
26.80102,128.8167,0.4438202,0.9796425,5.178957
26.85071,122.205,0.5192248,0.9798071,5.178957
26.8999,118.6448,0.5795468,0.9798071,5.178957
26.94966,117.7548,0.6624913,0.9798071,5.178957
26.99966,117.6276,0.7190447,0.9798071,5.178957
27.051,108.7272,0.7567456,0.9798071,5.178957
27.10137,105.2942,0.8660812,0.9798071,5.178957
27.15008,102.2427,0.9754167,0.9796425,5.172498
27.20006,100.0811,1.099833,0.9798071,5.178957
27.25079,98.80965,1.220479,0.9799718,5.178957
27.30066,98.1739,1.288342,0.9798071,5.178957
27.35091,95.88522,1.280802,0.9796425,5.178957
27.39984,91.18073,1.111143,0.9796425,5.185416
27.44968,94.10515,1.024429,0.9798071,5.178957
27.50041,126.4009,0.9188647,0.9798071,5.178957
27.55102,139.7515,0.8396901,0.9796425,5.178957
27.60088,132.8855,0.7529757,0.9798071,5.178957
27.65083,127.2909,0.6851124,0.9799718,5.178957
27.70083,118.8991,0.6323303,0.9798071,5.185416
27.74987,115.7204,0.4739826,0.9796425,5.185416
27.80063,115.5933,0.3797269,0.9798071,5.191875
27.85158,116.9919,0.2967838,0.9798071,5.198335
27.89985,107.2015,0.1836783,0.9796425,5.204794
27.94986,102.7513,0.1007338,0.9796425,5.211253
27.99984,101.0983,0.05172167,0.9796425,5.211253
28.05066,98.80965,-0.01991297,0.9798071,5.211253
28.10128,97.66531,-0.03499277,0.9798071,5.211253
28.15075,96.90242,-0.05384392,0.9796425,5.204794
28.19987,91.56216,-0.2649751,0.9796425,5.198335
28.25006,89.5278,-0.5326583,0.9798071,5.204794
28.30157,91.81647,-0.6910059,0.9796425,5.198335
28.35166,126.528,-0.7701791,0.9798071,5.198335
28.40041,141.4044,-0.7814904,0.9796425,5.191875
28.45012,132.2497,-0.8267326,0.9798071,5.198335
28.50003,131.4868,-0.8908259,0.9799718,5.191875
28.55098,122.205,-0.8945959,0.9796425,5.198335
28.60092,116.7376,-0.8870559,0.9796425,5.191875
28.6505,115.0847,-0.8908259,0.9798071,5.191875
28.70024,115.339,-0.8908259,0.9798071,5.198335
28.75012,106.0571,-0.8908259,0.9798071,5.191875
28.80128,103.1327,-0.8682048,0.9796425,5.191875
28.85088,101.4798,-0.8682048,0.9799718,5.191875
28.90078,98.9368,-0.8832846,0.9798071,5.191875
28.95065,96.13953,-0.8757447,0.9798071,5.191875
28.99982,95.88522,-0.8191913,0.9798071,5.191875
29.05075,94.61374,-0.8191913,0.9799718,5.191875
29.10141,88.63776,-0.8832846,0.9796425,5.191875
29.15002,96.13953,-0.943608,0.9798071,5.191875
29.20001,130.2153,-0.973769,0.9796425,5.191875
29.24975,138.48,-0.9888502,0.9796425,5.191875
29.30125,135.047,-1.030322,0.9798071,5.191875
29.35102,128.4353,-1.101956,0.9796425,5.185416
29.40065,125.2566,-1.150968,0.9798071,5.191875
29.44987,119.2806,-1.166049,0.9796425,5.191875
29.5,118.0091,-1.18113,0.9798071,5.185416
29.55155,117.7548,-1.19621,0.9798071,5.185416
29.60156,108.7272,-1.18867,0.9796425,5.191875
29.65025,105.1671,-1.132118,0.9799718,5.185416
29.70003,101.8612,-1.079335,0.9798071,5.185416
29.75078,99.95398,-1.052943,0.9798071,5.185416
29.80111,98.04675,-0.9926201,0.9796425,5.185416
29.851,96.52097,-0.7701791,0.9799718,5.185416
29.90009,94.99519,-0.5401982,0.9799718,5.185416
29.95076,88.7649,-0.5401982,0.9798071,5.185416
30.00081,94.99519,-0.4874161,0.9798071,5.185416
30.05155,111.6517,-0.3102173,0.9798071,5.185416
30.10093,141.2773,-0.01991297,0.9798071,5.185416
30.15081,133.9027,0.1045038,0.9796425,5.185416
30.20014,129.9611,0.2213792,0.9798071,5.185416
30.25008,124.748,0.3080936,0.9798071,5.191875
30.30129,118.8991,0.4852925,0.9798071,5.185416
30.35181,116.9919,0.6210191,0.9798071,5.185416
30.4003,115.8476,0.6775725,0.9798071,5.178957
30.45029,109.6173,0.7303545,0.9796425,5.185416
30.49981,107.5829,0.790678,0.9799718,5.178957
30.55083,103.7684,0.8359202,0.9798071,5.178957
30.60124,98.80965,0.9113234,0.9798071,5.178957
30.64977,97.79247,0.982958,0.9798071,5.172498
30.69993,96.90242,1.137534,0.9796425,5.172498
30.74977,94.61374,1.145076,0.9796425,5.172498
30.80105,89.5278,1.148846,0.9798071,5.172498
30.85176,90.67213,1.114913,0.9798071,5.172498
30.89961,121.9507,1.141306,0.9798071,5.166039
30.95051,138.48,1.118685,0.9798071,5.166039
31.00051,129.3253,1.04705,0.9798071,5.166039
31.0509,124.8751,0.9565656,0.9799718,5.166039
31.10154,116.229,0.9150933,0.9798071,5.166039
31.15024,114.7032,0.8773924,0.9798071,5.166039
31.1998,115.0847,0.8095291,0.9798071,5.166039
31.24963,115.4661,0.7718268,0.9798071,5.166039
31.30075,106.9472,0.7642869,0.9798071,5.166039
31.35176,101.8612,0.7416658,0.9796425,5.166039
31.40051,99.19109,0.6662613,0.9798071,5.166039
31.45027,96.90242,0.594628,0.9798071,5.172498
31.50006,96.13953,0.5456159,0.9798071,5.172498
31.55114,95.37663,0.5418459,0.9798071,5.172498
31.60093,89.5278,0.4325104,0.9798071,5.172498
31.6508,88.7649,0.2930138,0.9799718,5.178957
31.70026,108.3458,0.176137,0.9799718,5.178957
31.75085,141.023,0.1346648,0.9798071,5.178957
31.80063,136.8271,0.1007338,0.9798071,5.185416
31.85068,126.9095,0.03664047,0.9798071,5.185416
31.90038,123.7308,-0.008601722,0.9798071,5.185416
31.9498,115.4661,-0.03122282,0.9796425,5.185416
32.0008,113.0503,-0.06138382,0.9798071,5.191875
32.0516,113.4317,-0.1330184,0.9798071,5.198335
32.1018,107.9643,-0.1858006,0.9796425,5.198335
32.15025,103.387,-0.2008817,0.9798071,5.198335
32.19963,100.3354,-0.2046517,0.9798071,5.198335
32.25024,97.66531,-0.3064459,0.9796425,5.198335
32.30149,95.75809,-0.3629994,0.9796425,5.204794
32.35155,93.72369,-0.3366083,0.9798071,5.204794
32.40063,93.08795,-0.3177572,0.9798071,5.204794
32.45054,87.62056,-0.4761049,0.9798071,5.204794
32.50023,86.09478,-0.7965702,0.9798071,5.204794
32.55151,88.7649,-0.8380424,0.9796425,5.204794
32.60067,140.1329,-0.8682048,0.9796425,5.204794
32.65055,136.8271,-0.8945959,0.9799718,5.204794
32.69973,130.0882,-0.9511479,0.9799718,5.204794
32.75038,126.7823,-1.011471,0.9798071,5.204794
32.80124,119.0263,-1.037862,0.9796425,5.204794
32.85119,116.8647,-1.052943,0.9798071,5.211253
32.89972,116.6105,-1.064253,0.9796425,5.211253
32.94967,111.1431,-1.094416,0.9796425,5.204794
33.00063,105.8028,-1.098186,0.9796425,5.204794
33.05147,101.4798,-1.086876,0.9796425,5.204794
33.10137,99.57254,-1.090646,0.9798071,5.204794
33.15038,97.28386,-1.075565,0.9796425,5.204794
33.20023,96.52097,-0.9963901,0.9798071,5.204794
33.24987,94.2323,-0.8870559,0.9796425,5.198335
33.30149,88.7649,-0.8757447,0.9798071,5.198335
33.35109,88.38345,-0.8568935,0.9798071,5.204794
33.40004,108.4729,-0.8229626,0.9798071,5.198335
33.45004,140.1329,-0.6269127,0.9798071,5.204794
33.50046,135.8099,-0.4572537,0.9798071,5.198335
33.55152,128.8167,-0.272515,0.9798071,5.198335
33.60152,125.5108,-0.008601722,0.9798071,5.198335
33.65012,116.9919,0.08942257,0.9798071,5.198335
33.70017,115.2118,0.2213792,0.9799718,5.198335
33.75078,115.4661,0.3608771,0.9796425,5.198335
33.80091,116.229,0.4777526,0.9796425,5.198335
33.85179,106.4386,0.590858,0.9798071,5.204794
33.90059,101.8612,0.6662613,0.9796425,5.204794
33.95016,99.19109,0.7454358,0.9798071,5.204794
34.00016,96.90242,0.8132991,0.9796425,5.204794
34.05166,95.75809,0.8924722,0.9798071,5.198335
34.10152,94.99519,1.016889,0.9798071,5.198335
34.15036,92.19792,1.0282,0.9798071,5.198335
34.20033,87.62056,1.050821,0.9798071,5.198335
34.2503,100.7169,1.088522,0.9798071,5.191875
34.30152,139.7515,1.133764,0.9798071,5.191875
34.35146,137.7171,1.167697,0.9798071,5.191875
34.4003,128.6896,1.269491,0.9798071,5.191875
34.45004,123.9851,1.254411,0.9798071,5.191875
34.50066,116.6105,1.209169,0.9799718,5.191875
34.55159,115.0847,1.129994,0.9798071,5.191875
34.60146,114.7032,1.04328,0.9796425,5.191875
34.65036,114.7032,0.9754167,0.9798071,5.191875
34.70024,103.7684,0.9452557,0.9798071,5.191875
34.7505,100.3354,0.9452557,0.9798071,5.191875
34.8013,97.9196,0.8962436,0.9798071,5.191875
34.85105,96.13953,0.8585413,0.9799718,5.191875
34.89978,94.86804,0.8698511,0.9798071,5.191875
34.9505,93.34225,0.8434601,0.9798071,5.198335
35.00085,88.12916,0.6662613,0.9798071,5.198335
35.05079,90.54498,0.5870881,0.9799718,5.198335
35.10099,115.7204,0.5569257,0.9798071,5.191875
35.15026,140.6415,0.5531558,0.9796425,5.191875
35.20011,131.8683,0.5079135,0.9796425,5.191875
35.25073,127.0366,0.4325104,0.9799718,5.191875
35.3009,120.2978,0.368417,0.9796425,5.191875
35.3517,113.8132,0.3231748,0.9798071,5.191875
35.40036,113.0503,0.2477702,0.9798071,5.191875
35.4509,113.4317,0.2100693,0.9798071,5.191875
35.5008,113.5589,0.1535159,0.9798071,5.191875
35.5513,103.0055,0.08565262,0.9798071,5.191875
35.60083,98.42819,0.01778932,0.9796425,5.191875
35.6502,96.90242,-0.1330184,0.9798071,5.185416
35.70015,94.10515,-0.2121916,0.9798071,5.191875
35.74968,93.08795,-0.1594095,0.9798071,5.185416
35.80119,92.19792,-0.2913661,0.9796425,5.191875
35.85103,86.73053,-0.5779005,0.9799718,5.185416
35.90065,91.81647,-0.7852603,0.9798071,5.191875
35.9497,119.0263,-0.8003415,0.9798071,5.185416
36.0009,140.8958,-0.8191913,0.9798071,5.191875
36.05161,132.2497,-0.8493537,0.9798071,5.191875
36.10164,129.5796,-0.8908259,0.9798071,5.191875
36.14981,122.4593,-0.913447,0.9796425,5.191875
36.20024,117.3734,-0.9209869,0.9798071,5.191875
36.24986,116.229,-0.9285268,0.9798071,5.198335
36.3007,114.7032,-0.943608,0.9798071,5.191875
36.35145,105.6757,-0.9511479,0.9798071,5.191875
36.4001,101.2255,-0.9398381,0.9798071,5.198335
36.44985,98.55534,-0.9511479,0.9798071,5.191875
36.50085,97.28386,-1.007701,0.9798071,5.198335
36.55127,93.85085,-1.011471,0.9796425,5.191875
36.60098,93.08795,-0.9398381,0.9799718,5.198335
36.65027,91.43503,-0.9398381,0.9798071,5.191875
36.70023,87.23911,-1.000161,0.9796425,5.198335
36.74998,90.29069,-1.094416,0.9796425,5.198335
36.80177,133.1398,-1.098186,0.9798071,5.198335
36.85149,138.9886,-1.068025,0.9798071,5.198335
36.90046,131.8683,-1.064253,0.9798071,5.191875
36.94982,126.0195,-1.041632,0.9798071,5.198335
36.99977,121.4421,-0.9888502,0.9798071,5.191875
37.05099,114.9575,-0.8908259,0.9798071,5.198335
37.10184,114.1946,-0.7890303,0.9798071,5.191875
37.15044,115.4661,-0.5590494,0.9796425,5.198335
37.19975,105.93,-0.4120115,0.9796425,5.191875
37.24973,101.8612,-0.08023497,0.9799718,5.191875
37.30172,98.04675,0.07811271,0.9798071,5.191875
37.35138,95.75809,0.1723671,0.9798071,5.191875
37.40071,94.61374,0.3118636,0.9798071,5.191875
37.45027,94.2323,0.4249691,0.9798071,5.191875
37.50011,92.57936,0.4287404,0.9798071,5.198335
37.55072,86.34908,0.4438202,0.9798071,5.204794
37.60097,94.99519,0.4702113,0.9798071,5.204794
37.65051,130.724,0.5154548,0.9799718,5.204794
37.70044,139.3701,0.6851124,0.9798071,5.198335
37.75002,128.8167,0.7642869,0.9798071,5.198335
37.80101,124.8751,0.7492057,0.9796425,5.198335
37.85085,116.9919,0.7680569,0.9799718,5.191875
37.89998,114.1946,0.8547713,0.9798071,5.191875
37.95001,114.1946,1.050821,0.9796425,5.191875
37.99976,114.7032,1.23556,0.9799718,5.185416
38.05188,104.4042,1.390138,0.9798071,5.185416
38.10094,101.4798,1.488162,0.9798071,5.185416
38.14974,98.80965,1.544715,0.9796425,5.178957
38.20007,97.02956,1.544715,0.9798071,5.178957
38.25084,94.86804,1.544715,0.9798071,5.178957
38.30172,93.08795,1.465541,0.9798071,5.178957
38.3515,88.25631,1.152616,0.9798071,5.178957
38.39972,92.57936,1.062131,0.9796425,5.178957
38.45054,132.1226,0.9565656,0.9799718,5.178957
38.50003,138.6072,0.8887023,0.9798071,5.178957
38.55075,136.1913,0.8132991,0.9796425,5.178957
38.60159,122.205,0.7378958,0.9798071,5.172498
38.64979,113.8132,0.6888824,0.9798071,5.172498
38.70068,111.906,0.6361002,0.9798071,5.172498
38.75001,111.5245,0.5154548,0.9798071,5.172498
38.80082,112.6688,0.4325104,0.9798071,5.172498
38.85173,110.6345,0.3948081,0.9798071,5.172498
38.90052,101.9884,0.3608771,0.9798071,5.166039
38.95026,96.52097,0.2779326,0.9798071,5.172498
38.99976,94.2323,0.1685971,0.9796425,5.172498
39.05101,92.96081,0.1648272,0.9798071,5.172498
39.1016,92.7065,0.115815,0.9796425,5.172498
39.15019,89.90925,-0.05007397,0.9798071,5.172498
39.1998,86.09478,-0.3969303,0.9798071,5.166039
39.24988,102.7513,-0.4610237,0.9798071,5.166039
39.30126,140.5144,-0.521347,0.9798071,5.172498
39.35168,136.9542,-0.6910059,0.9798071,5.166039
39.40043,129.9611,-0.751328,0.9798071,5.159579
39.45009,125.8923,-0.8305025,0.9798071,5.159579
39.49984,119.662,-0.8606635,0.9798071,5.159579
39.55167,116.229,-0.8795146,0.9798071,5.166039
39.6013,113.0503,-0.9059057,0.9796425,5.159579
39.65004,113.1774,-0.9360681,0.9796425,5.15312
39.69996,103.387,-0.9360681,0.9798071,5.15312
39.75047,98.80965,-0.9322981,0.9796425,5.15312
39.8013,96.26666,-0.973769,0.9798071,5.159579
39.85108,94.99519,-1.003931,0.9798071,5.15312
39.9002,93.85085,-0.9473779,0.9798071,5.15312
39.94995,91.43503,-0.9398381,0.9796425,5.15312
40.00083,87.23911,-1.041632,0.9798071,5.15312
40.05169,98.80965,-1.218831,0.9796425,5.15312
40.10159,134.157,-1.230142,0.9798071,5.15312
40.14993,138.48,-1.233912,0.9796425,5.146661
40.2005,133.3941,-1.260303,0.9798071,5.146661
40.251,128.8167,-1.305546,0.9799718,5.146661
40.3012,124.4937,-1.301776,0.9798071,5.15312
40.35098,116.6105,-1.279155,0.9798071,5.15312
40.40092,114.9575,-1.256533,0.9798071,5.146661
40.45018,114.1946,-1.218831,0.9799718,5.15312
40.50033,108.3458,-1.162279,0.9798071,5.15312
40.55162,102.2427,-1.007701,0.9798071,5.15312
40.60145,99.57254,-0.9209869,0.9796425,5.146661
40.65083,96.52097,-0.8682048,0.9798071,5.15312
40.7002,94.2323,-0.6533037,0.9798071,5.15312
40.74995,93.34225,-0.3818505,0.9796425,5.146661
40.80079,90.29069,-0.2913661,0.9796425,5.15312
40.85109,86.98483,-0.1669494,0.9798071,5.15312
40.90029,98.04675,0.01778932,0.9798071,5.146661
40.95024,138.2257,0.1949881,0.9798071,5.15312
41.0007,138.2257,0.3571058,0.9798071,5.15312
41.05145,128.8167,0.4739826,0.9798071,5.15312
41.10145,125.638,0.590858,0.9798071,5.15312
41.15099,116.6105,0.7001936,0.9798071,5.15312
41.20097,114.3218,0.7416658,0.9796425,5.15312
41.25055,113.4317,0.7793667,0.9799718,5.15312
41.3017,114.1946,0.8246089,0.9798071,5.159579
41.35132,104.9128,0.9188647,0.9799718,5.159579
41.40024,99.95398,0.986728,0.9798071,5.159579
41.44999,97.28386,1.073442,0.9798071,5.159579
41.50097,96.13953,1.186548,0.9798071,5.159579
41.55193,96.26666,1.318504,0.9798071,5.166039
41.60078,93.72369,1.333584,0.9796425,5.159579
41.65024,88.7649,1.310963,0.9799718,5.159579
41.69982,89.5278,1.284572,0.9798071,5.15312
41.74982,118.8991,1.273262,0.9799718,5.159579
41.80092,136.9542,1.175237,0.9798071,5.159579
41.85209,125.2566,1.058361,0.9798071,5.159579
41.90081,118.8991,0.9603355,0.9796425,5.159579
41.95064,112.6688,0.8924722,0.9796425,5.15312
42.00005,111.7788,0.8585413,0.9798071,5.159579
42.05175,113.0503,0.84723,0.9798071,5.159579
42.10148,114.3218,0.820839,0.9798071,5.159579
42.15024,104.1499,0.8283803,0.9796425,5.159579
42.20017,100.3354,0.7755968,0.9796425,5.159579
42.25083,98.42819,0.7265846,0.9798071,5.159579
42.30157,95.37663,0.6888824,0.9796425,5.15312
42.35095,94.48659,0.6323303,0.9796425,5.159579
42.40062,93.08795,0.5531558,0.9798071,5.159579
42.45061,88.38345,0.4551315,0.9798071,5.159579
42.5008,94.86804,0.398578,0.9798071,5.159579
42.55085,120.9335,0.3307147,0.9798071,5.159579
42.60084,133.3941,0.2515416,0.9799718,5.166039
42.65016,127.6724,0.1685971,0.9798071,5.159579
42.69984,121.9507,0.1308948,0.9799718,5.159579
42.75072,113.9403,0.1045038,0.9798071,5.166039
42.80079,111.906,0.05926157,0.9798071,5.166039
42.8514,112.6688,-0.04630401,0.9798071,5.166039
42.90016,112.5417,-0.2121916,0.9796425,5.166039
42.95023,102.7513,-0.3592294,0.9796425,5.166039
43.00023,98.80965,-0.494956,0.9798071,5.172498
43.05119,96.90242,-0.717397,0.9799718,5.172498
43.1012,95.37663,-0.7550993,0.9796425,5.178957
43.15069,93.72369,-0.7626392,0.9798071,5.178957
43.2001,91.56216,-0.8493537,0.9798071,5.185416
43.25103,88.00201,-1.030322,0.9798071,5.185416
43.30193,117.3734,-1.094416,0.9796425,5.191875
43.35189,139.7515,-1.117037,0.9798071,5.191875
43.40031,136.4456,-1.18113,0.9796425,5.198335
43.45081,131.3597,-1.264073,0.9798071,5.204794
43.50056,129.5796,-1.290466,0.9799718,5.204794
43.55123,120.1706,-1.301776,0.9799718,5.211253
43.6013,116.4833,-1.305546,0.9798071,5.211253
43.6508,116.1019,-1.313087,0.9799718,5.217712
43.7009,115.8476,-1.313087,0.9798071,5.224171
43.75089,107.9643,-1.290466,0.9798071,5.224171
43.8021,102.3698,-1.286694,0.9798071,5.23063
43.85086,99.06393,-1.301776,0.9798071,5.237089
43.90072,96.77527,-1.248994,0.9798071,5.237089
43.95108,96.13953,-1.060483,0.9796425,5.237089
44.00001,94.10515,-0.9888502,0.9798071,5.243549
44.05094,90.29069,-0.943608,0.9798071,5.243549
44.10155,97.53816,-0.8757447,0.9798071,5.250008
44.15048,140.1329,-0.7701791,0.9798071,5.250008
44.19995,137.7171,-0.4911861,0.9798071,5.256467
44.25092,130.2153,-0.2084216,0.9798071,5.250008
44.30145,126.528,0.08565262,0.9799718,5.256467
44.35081,117.7548,0.1987581,0.9798071,5.256467
44.40048,115.8476,0.3080936,0.9798071,5.262926
44.4503,115.0847,0.4098893,0.9798071,5.256467
44.5009,114.5761,0.5116835,0.9798071,5.256467
44.55105,106.4386,0.5757769,0.9796425,5.262926
44.60091,103.1327,0.6662613,0.9798071,5.262926
44.65016,99.19109,0.8283803,0.9799718,5.269385
44.70068,97.28386,0.9339445,0.9798071,5.269385
44.75042,95.63092,1.03197,0.9798071,5.269385
44.80168,93.08795,1.04328,0.9798071,5.269385
44.85173,89.40065,1.04705,0.9798071,5.269385
44.90091,98.6825,1.062131,0.9798071,5.269385
44.95105,138.6072,1.145076,0.9798071,5.269385
45.00043,133.9027,1.201628,0.9796425,5.269385
45.05154,126.0195,1.322274,0.9798071,5.275845
45.10131,119.4077,1.469311,0.9799718,5.269385
45.15022,113.8132,1.522094,0.9798071,5.275845
45.20018,113.1774,1.548485,0.9798071,5.275845
45.24992,114.3218,1.507013,0.9799718,5.275845
45.30095,114.1946,1.424069,0.9798071,5.269385
45.35152,104.0227,1.378826,0.9798071,5.269385
45.40018,99.57254,1.261951,0.9798071,5.275845
45.45021,97.66531,1.156385,0.9799718,5.275845
45.49986,97.66531,1.156385,0.9799718,5.275845
45.55194,95.75809,1.111143,0.9796425,5.275845
45.60201,90.29069,0.9527956,0.9796425,5.275845
45.64994,92.57936,0.8660812,0.9799718,5.275845
45.69992,108.4729,0.8057591,0.9796425,5.269385
45.75047,136.4456,0.7454358,0.9798071,5.275845
45.80172,134.0298,0.6700312,0.9798071,5.275845
45.85172,126.0195,0.6021679,0.9799718,5.282304
45.9009,119.662,0.5757769,0.9798071,5.275845
45.95044,114.3218,0.560697,0.9799718,5.275845
46.00019,112.6688,0.5116835,0.9796425,5.275845
46.05146,111.7788,0.4249691,0.9799718,5.275845
46.10154,103.7684,0.3344847,0.9798071,5.275845
46.15051,101.2255,0.2326904,0.9798071,5.275845
46.20007,97.66531,0.1572859,0.9798071,5.275845
46.25076,94.99519,0.08188266,0.9798071,5.275845
46.30117,93.85085,0.04795032,0.9798071,5.275845
46.35103,93.34225,-0.1933405,0.9798071,5.275845
46.40046,89.5278,-0.6118314,0.9798071,5.275845
46.45076,88.63776,-0.7814904,0.9798071,5.275845
46.49988,101.0983,-0.8041115,0.9798071,5.275845
46.55117,138.2257,-0.8342724,0.9798071,5.275845
46.60104,134.9198,-0.8832846,0.9798071,5.269385
46.65103,128.8167,-0.9662291,0.9798071,5.275845
46.70038,124.1122,-0.9850802,0.9796425,5.269385
46.75018,116.6105,-1.007701,0.9798071,5.269385
46.80116,114.5761,-1.049174,0.9796425,5.269385
46.85117,113.8132,-1.086876,0.9798071,5.269385
46.90078,107.2015,-1.086876,0.9798071,5.269385
46.95071,102.3698,-1.079335,0.9798071,5.275845
47.00039,99.19109,-1.132118,0.9798071,5.269385
47.05106,95.24948,-1.18113,0.9799718,5.269385
47.10194,94.86804,-1.022783,0.9798071,5.269385
47.15054,93.85085,-0.9624591,0.9798071,5.269385
47.19991,90.41783,-1.019011,0.9798071,5.269385
47.25058,94.10515,-1.019011,0.9799718,5.269385
47.30126,130.0882,-0.9285268,0.9796425,5.275845
47.35173,140.5144,-0.8493537,0.9796425,5.269385
47.40006,134.6656,-0.8003415,0.9798071,5.269385
47.4499,129.9611,-0.5892103,0.9798071,5.269385
47.4999,123.2222,-0.3554595,0.9798071,5.269385
47.55177,117.3734,-0.008601722,0.9798071,5.269385
47.60148,115.0847,0.1685971,0.9798071,5.269385
47.65075,114.7032,0.3269448,0.9799718,5.269385
47.70005,107.9643,0.4513615,0.9799718,5.269385
47.75016,103.0055,0.5154548,0.9798071,5.275845
47.80129,99.19109,0.5682369,0.9798071,5.269385
47.8511,96.64812,0.6549514,0.9798071,5.269385
47.9001,94.86804,0.7529757,0.9798071,5.269385
47.95001,93.85085,0.8019878,0.9796425,5.275845
47.99991,90.29069,0.820839,0.9798071,5.275845
48.05113,90.79928,0.84723,0.9796425,5.275845
48.10149,107.0743,0.9150933,0.9798071,5.269385
48.15027,139.7515,1.020659,0.9796425,5.275845
48.20066,130.3425,1.133764,0.9796425,5.269385
48.25024,126.4009,1.179007,0.9798071,5.269385
48.3017,117.3734,1.295883,0.9798071,5.269385
48.35139,115.0847,1.390138,0.9799718,5.269385
48.40105,113.0503,1.43915,0.9796425,5.275845
48.44993,112.5417,1.424069,0.9799718,5.269385
48.49995,111.906,1.424069,0.9798071,5.269385
48.551,101.0983,1.378826,0.9798071,5.275845
48.60095,98.80965,1.288342,0.9798071,5.275845
48.65006,96.13953,1.201628,0.9798071,5.269385
48.7009,93.72369,1.212939,0.9798071,5.269385
48.75017,92.32506,1.129994,0.9796425,5.275845
48.80125,88.00201,0.982958,0.9798071,5.275845
48.85167,97.15671,0.9113234,0.9798071,5.275845
48.90036,131.2325,0.8547713,0.9798071,5.275845
48.95052,138.6072,0.783138,0.9798071,5.275845
49.00082,128.8167,0.7077335,0.9798071,5.275845
49.05088,123.2222,0.6285604,0.9799718,5.269385
49.10094,114.5761,0.6210191,0.9798071,5.269385
49.15038,112.1602,0.594628,0.9796425,5.269385
49.20063,110.6345,0.5456159,0.9798071,5.269385
49.25056,110.253,0.5041436,0.9799718,5.269385
49.30194,102.1155,0.4664413,0.9798071,5.269385
49.35104,98.6825,0.3872682,0.9798071,5.262926
49.4002,95.75809,0.2590815,0.9798071,5.262926
49.45098,92.57936,0.2213792,0.9798071,5.262926
49.50009,91.43503,0.2176092,0.9798071,5.256467
49.55087,89.90925,0.01401937,0.9798071,5.256467
49.60094,84.0604,-0.4384026,0.9798071,5.256467
49.6508,95.24948,-0.6533037,0.9798071,5.256467
49.70069,131.4868,-0.7060858,0.9798071,5.256467
49.75026,137.8443,-0.7362482,0.9798071,5.250008
49.80142,133.1398,-0.7890303,0.9796425,5.250008
49.85136,127.9267,-0.8380424,0.9798071,5.250008
49.90071,118.8991,-0.8531236,0.9796425,5.250008
49.95043,114.7032,-0.8682048,0.9796425,5.250008
50.00025,113.4317,-0.9021357,0.9798071,5.250008
50.05091,112.1602,-0.917217,0.9798071,5.250008
50.10106,106.4386,-0.917217,0.9798071,5.250008
50.15106,101.0983,-0.917217,0.9796425,5.250008
50.20042,97.66531,-0.9963901,0.9798071,5.243549
50.25018,94.86804,-0.9775403,0.9799718,5.243549
50.30188,93.34225,-0.8870559,0.9796425,5.243549
50.35148,89.78209,-0.913447,0.9796425,5.250008
50.4002,86.47623,-1.011471,0.9796425,5.243549
50.45007,92.07076,-1.120807,0.9799718,5.243549
50.49994,129.1982,-1.098186,0.9798071,5.243549
50.5521,134.9198,-1.083104,0.9798071,5.243549
50.60169,130.2153,-1.098186,0.9799718,5.243549
50.65014,127.1638,-0.9662291,0.9798071,5.243549
50.69989,117.3734,-0.8719748,0.9798071,5.243549
50.75056,113.4317,-0.7626392,0.9798071,5.250008
50.80204,112.1602,-0.464795,0.9798071,5.250008
50.85168,109.2358,-0.1933405,0.9798071,5.250008
50.90041,102.6241,0.1836783,0.9798071,5.250008
50.95011,98.9368,0.3344847,0.9798071,5.250008
50.99993,95.12233,0.4551315,0.9798071,5.250008
51.05091,92.7065,0.560697,0.9796425,5.243549
51.10135,92.19792,0.624789,0.9798071,5.250008
51.15063,90.79928,0.6361002,0.9796425,5.250008
51.20056,87.23911,0.6587213,0.9798071,5.250008
51.25076,103.387,0.6813424,0.9798071,5.250008
51.30177,141.023,0.7605169,0.9798071,5.250008
51.35115,138.0986,0.9565656,0.9799718,5.256467
51.40093,128.3081,0.9490256,0.9798071,5.256467
51.45093,121.5692,1.013119,0.9798071,5.256467
51.5008,114.7032,1.129994,0.9798071,5.256467
51.55154,113.8132,1.23933,0.9798071,5.256467
51.60112,112.2874,1.318504,0.9796425,5.256467
51.65018,111.7788,1.412759,0.9799718,5.256467
51.70001,101.4798,1.491932,0.9798071,5.256467
51.75085,98.42819,1.544715,0.9798071,5.256467
51.80169,96.01237,1.544715,0.9796425,5.256467
51.85198,94.61374,1.491932,0.9798071,5.256467
51.90051,92.19792,1.450461,0.9798071,5.256467
51.95001,88.00201,1.265721,0.9798071,5.256467
52.00076,86.85767,1.145076,0.9796425,5.256467
52.05113,112.4145,1.088522,0.9798071,5.256467
52.10197,130.724,1.062131,0.9798071,5.256467
52.15076,126.4009,1.016889,0.9798071,5.256467
52.20108,121.315,0.9527956,0.9798071,5.256467
52.25051,111.7788,0.9188647,0.9798071,5.256467
52.30209,109.6173,0.8660812,0.9796425,5.256467
52.35213,109.1087,0.7944479,0.9798071,5.256467
52.40013,109.6173,0.7303545,0.9798071,5.262926
52.45097,101.3526,0.7001936,0.9798071,5.256467
52.50092,99.57254,0.6700312,0.9798071,5.262926
52.55092,94.86804,0.6097092,0.9798071,5.262926
52.60163,91.05358,0.590858,0.9798071,5.262926
52.65035,90.67213,0.5870881,0.9799718,5.262926
52.70064,89.5278,0.4061193,0.9798071,5.269385
52.75093,84.95044,0.145976,0.9798071,5.262926
52.80114,107.0743,-0.1141673,0.9798071,5.269385
52.85117,140.5144,-0.302676,0.9798071,5.275845
52.89992,138.9886,-0.3629994,0.9798071,5.275845
52.95092,129.071,-0.4836448,0.9798071,5.275845
53.00061,124.748,-0.6231427,0.9798071,5.282304
53.05164,116.229,-0.6834647,0.9798071,5.282304
53.10136,111.6517,-0.747558,0.9798071,5.282304
53.15015,110.6345,-0.7965702,0.9798071,5.282304
53.2007,111.1431,-0.8380424,0.9796425,5.275845
53.25051,101.4798,-0.8568935,0.9798071,5.282304
53.30117,97.9196,-0.8983658,0.9798071,5.275845
53.35098,94.2323,-0.9624591,0.9798071,5.275845
53.40026,92.57936,-0.9549192,0.9798071,5.275845
53.45093,91.05358,-0.9059057,0.9798071,5.282304
53.50075,89.90925,-1.000161,0.9799718,5.282304
53.55162,85.84048,-1.117037,0.9798071,5.275845
53.60217,108.2186,-1.173589,0.9796425,5.282304
53.65112,141.5316,-1.18867,0.9798071,5.282304
53.7006,136.4456,-1.218831,0.9798071,5.275845
53.75075,129.9611,-1.275385,0.9796425,5.282304
53.80133,125.2566,-1.290466,0.9798071,5.282304
53.85217,116.6105,-1.275385,0.9798071,5.282304
53.90066,115.8476,-1.245224,0.9798071,5.282304
53.95065,115.0847,-1.199981,0.9798071,5.282304
54.00061,109.4901,-1.019011,0.9798071,5.282304
54.05179,103.0055,-0.8380424,0.9798071,5.275845
54.10114,97.66531,-0.7814904,0.9798071,5.275845
54.15116,93.72369,-0.4798748,0.9798071,5.282304
54.20097,92.57936,-0.1141673,0.9796425,5.275845
54.25038,91.05358,0.1422061,0.9798071,5.275845
54.30199,86.85767,0.202528,0.9799718,5.275845
54.352,91.81647,0.3005537,0.9798071,5.275845
54.40083,120.0435,0.4211991,0.9798071,5.275845
54.45094,139.1158,0.5116835,0.9796425,5.275845
54.50012,136.9542,0.590858,0.9796425,5.275845
54.55137,127.5452,0.6662613,0.9798071,5.275845
54.60099,116.3562,0.7567456,0.9798071,5.269385
54.6507,114.5761,0.8773924,0.9798071,5.269385
54.70044,113.4317,0.9490256,0.9798071,5.275845
54.75025,112.2874,0.9980378,0.9798071,5.269385
54.80199,103.8956,1.065901,0.9798071,5.269385
54.85212,99.69969,1.152616,0.9798071,5.275845
54.90016,96.01237,1.2431,0.9798071,5.275845
54.95091,95.63092,1.344895,0.9796425,5.275845
55.00031,92.96081,1.473082,0.9796425,5.275845
55.05203,89.40065,1.454231,0.9799718,5.275845
55.10184,88.25631,1.43161,0.9796425,5.282304
55.15061,109.2358,1.44292,0.9798071,5.275845
55.20086,140.2601,1.43915,0.9796425,5.275845
55.25113,132.3769,1.371287,0.9798071,5.282304
55.29999,124.748,1.284572,0.9798071,5.282304
55.35102,114.8304,1.205399,0.9798071,5.282304
55.40082,110.7616,1.179007,0.9796425,5.282304
55.45121,109.9987,1.141306,0.9798071,5.282304
55.50087,110.3802,1.073442,0.9798071,5.282304
55.55004,111.0159,1.073442,0.9796425,5.282304
55.59996,99.19109,1.058361,0.9796425,5.282304
55.65058,96.26666,1.03197,0.9798071,5.288763
55.70197,93.978,0.986728,0.9796425,5.288763
55.7506,91.81647,0.9301745,0.9796425,5.288763
55.80011,89.5278,0.7605169,0.9798071,5.288763
55.8509,86.09478,0.6775725,0.9798071,5.288763
55.90074,96.01237,0.6361002,0.9798071,5.295222
55.95198,138.9886,0.6172491,0.9798071,5.295222
56.00095,134.2841,0.5531558,0.9798071,5.301681
56.05015,126.2737,0.4287404,0.9798071,5.295222
56.09998,119.2806,0.3307147,0.9798071,5.295222
56.14998,112.5417,0.2930138,0.9798071,5.301681
56.2016,109.7444,0.2326904,0.9798071,5.301681
56.2506,109.4901,0.1685971,0.9798071,5.301681
56.30002,109.6173,0.08565262,0.9799718,5.295222
56.35003,100.3354,-0.02368292,0.9798071,5.295222
56.40115,95.12233,-0.2875962,0.9798071,5.295222
56.45138,92.07076,-0.3554595,0.9798071,5.301681
56.50086,91.56216,-0.3780806,0.9799718,5.301681
56.55034,90.67213,-0.525117,0.9798071,5.295222
56.60012,87.11198,-0.721167,0.9798071,5.295222
56.65083,93.72369,-0.8003415,0.9798071,5.295222
56.70209,129.071,-0.8342724,0.9798071,5.288763
56.75073,137.4628,-0.8606635,0.9798071,5.288763
56.80071,131.2325,-0.9021357,0.9798071,5.295222
56.85009,126.7823,-0.9511479,0.9799718,5.295222
56.90015,118.772,-0.9813103,0.9798071,5.295222
56.95137,114.3218,-0.9850802,0.9798071,5.295222
57.00037,113.0503,-0.9963901,0.9798071,5.295222
57.05002,112.6688,-0.973769,0.9798071,5.295222
57.10033,103.7684,-0.9624591,0.9799718,5.295222
57.15123,98.9368,-0.9662291,0.9798071,5.295222
57.20223,95.88522,-0.9473779,0.9798071,5.301681
57.25035,94.86804,-0.8342724,0.9798071,5.301681
57.30067,92.07076,-0.7777204,0.9798071,5.30814
57.35072,87.62056,-0.7550993,0.9798071,5.301681
57.40022,91.94361,-0.7287069,0.9798071,5.30814
57.45218,126.9095,-0.5138072,0.9798071,5.301681
57.50058,140.8958,-0.2574338,0.9798071,5.30814
57.55052,134.9198,0.08565262,0.9799718,5.30814
57.60017,126.2737,0.2138393,0.9798071,5.30814
57.65083,116.4833,0.372187,0.9798071,5.30814
57.70167,114.1946,0.4852925,0.9798071,5.30814
57.75022,112.2874,0.564467,0.9798071,5.30814
57.80022,111.906,0.6285604,0.9798071,5.301681
57.85064,104.7856,0.6775725,0.9799718,5.30814
57.90086,99.57254,0.7378958,0.9798071,5.30814
57.95121,95.24948,0.8887023,0.9799718,5.30814
58.00002,95.37663,1.016889,0.9796425,5.30814
58.05001,94.10515,1.069671,0.9799718,5.30814
58.10001,90.29069,1.069671,0.9798071,5.314599
58.15002,87.23911,1.073442,0.9798071,5.30814
58.20102,99.57254,1.096063,0.9796425,5.314599
58.25095,139.7515,1.175237,0.9798071,5.314599
58.30099,132.1226,1.261951,0.9798071,5.321059
58.35099,124.8751,1.359975,0.9798071,5.314599
58.40019,115.4661,1.465541,0.9798071,5.321059
58.45121,110.7616,1.548485,0.9798071,5.321059
58.50101,108.7272,1.601267,0.9798071,5.321059
58.55034,110.3802,1.605037,0.9798071,5.321059
58.6007,103.0055,1.567337,0.9798071,5.321059
58.65036,100.0811,1.525864,0.9799718,5.321059
58.70123,95.50377,1.469311,0.9798071,5.321059
58.75039,94.10515,1.408989,0.9798071,5.321059
58.80036,92.45221,1.344895,0.9798071,5.327518
58.85069,88.38345,1.186548,0.9798071,5.327518
58.90097,86.98483,1.04705,0.9798071,5.327518
58.95101,101.2255,0.9904979,0.9798071,5.327518
59.00055,134.0298,0.9150933,0.9798071,5.327518
59.05013,132.6312,0.8510014,0.9798071,5.327518
59.10114,123.6036,0.7529757,0.9798071,5.327518
59.15083,115.2118,0.7001936,0.9798071,5.327518
59.20135,110.1259,0.6851124,0.9796425,5.327518
59.25056,107.9643,0.6549514,0.9798071,5.327518
59.30038,108.4729,0.6323303,0.9798071,5.333977
59.35035,107.0743,0.6285604,0.9798071,5.333977
59.40087,98.6825,0.590858,0.9796425,5.340436
59.45197,93.46941,0.4777526,0.9796425,5.340436
59.50008,92.96081,0.4438202,0.9798071,5.340436
59.55055,92.32506,0.4475902,0.9798071,5.340436
59.60022,89.40065,0.2741627,0.9798071,5.340436
59.65013,85.20473,-0.07269506,0.9799718,5.340436
59.70208,96.13953,-0.3177572,0.9798071,5.327518
59.75059,140.6415,-0.3403783,0.9798071,5.327518
59.80046,137.7171,-0.3856205,0.9798071,5.327518
59.85059,129.3253,-0.5364283,0.9798071,5.327518
59.90034,124.748,-0.6156014,0.9796425,5.327518
59.95121,114.7032,-0.6608436,0.9798071,5.327518
60.00096,112.0331,-0.717397,0.9796425,5.321059
60.0508,111.7788,-0.7550993,0.9798071,5.321059
60.10093,110.6345,-0.7626392,0.9798071,5.327518
60.15013,102.2427,-0.751328,0.9796425,5.321059
60.20107,97.02956,-0.7852603,0.9796425,5.321059
60.25096,95.12233,-0.8229626,0.9799718,5.327518
60.30109,94.10515,-0.8003415,0.9799718,5.321059
60.35067,91.43503,-0.7814904,0.9796425,5.327518
60.40112,87.36626,-0.8983658,0.9798071,5.327518
60.45108,94.86804,-1.026552,0.9798071,5.321059
60.50017,105.5485,-1.056713,0.9798071,5.321059
60.55094,138.2257,-1.060483,0.9796425,5.327518
60.60085,135.1741,-1.075565,0.9796425,5.321059
60.6508,126.0195,-1.120807,0.9798071,5.327518
60.70115,121.315,-1.090646,0.9798071,5.321059
60.75058,114.1946,-1.022783,0.9798071,5.327518
60.80096,112.6688,-0.8795146,0.9798071,5.321059
60.85084,111.7788,-0.8078814,0.9798071,5.327518
60.90012,106.0571,-0.6796947,0.9798071,5.321059
60.95193,100.3354,-0.3931604,0.9798071,5.321059
61.00063,95.75809,-0.2121916,0.9796425,5.321059
61.05062,94.48659,0.1610572,0.9798071,5.327518
61.10013,92.96081,0.3834982,0.9798071,5.321059
61.15011,89.90925,0.4438202,0.9798071,5.321059
61.20204,86.47623,0.4739826,0.9796425,5.321059
61.25063,90.92643,0.5116835,0.9798071,5.321059
61.30118,140.3873,0.5569257,0.9798071,5.321059
61.35088,136.0642,0.6021679,0.9798071,5.321059
61.40088,128.4353,0.7115034,0.9798071,5.321059
61.45193,121.4421,0.8396901,0.9798071,5.314599
61.50012,117.2462,0.9226346,0.9798071,5.314599
61.55013,111.7788,0.9791867,0.9799718,5.314599
61.60108,111.0159,1.03951,0.9798071,5.314599
61.65062,111.906,1.126225,0.9798071,5.314599
61.7012,101.4798,1.250641,0.9798071,5.314599
61.75092,95.88522,1.310963,0.9798071,5.321059
61.80089,94.35944,1.397678,0.9798071,5.314599
61.85088,93.85085,1.480622,0.9798071,5.321059
61.9009,91.18073,1.510783,0.9798071,5.321059
61.95163,87.62056,1.476852,0.9796425,5.314599
62.00034,89.5278,1.461771,0.9798071,5.321059
62.05008,107.71,1.491932,0.9798071,5.314599
62.10118,137.7171,1.488162,0.9796425,5.321059
62.15057,124.2394,1.469311,0.9798071,5.321059
62.20107,115.7204,1.44669,0.9796425,5.321059
62.25085,109.1087,1.416529,0.9798071,5.321059
62.30042,106.9472,1.348665,0.9798071,5.321059
62.35106,107.5829,1.265721,0.9798071,5.321059
62.40105,109.4901,1.24687,0.9798071,5.321059
62.45106,99.69969,1.23179,0.9798071,5.321059
62.5004,98.9368,1.126225,0.9799718,5.327518
62.55055,93.59654,1.084752,0.9798071,5.321059
62.60107,91.94361,1.084752,0.9798071,5.327518
62.65105,91.56216,1.03197,0.9798071,5.321059
62.70146,86.85767,0.783138,0.9796425,5.321059
62.75105,92.32506,0.7341245,0.9798071,5.321059
62.80044,118.2634,0.7077335,0.9798071,5.321059
62.85098,136.1913,0.6662613,0.9798071,5.321059
62.90108,131.1054,0.6172491,0.9798071,5.321059
62.95208,121.5692,0.5116835,0.9798071,5.321059
63.001,113.686,0.4626714,0.9798071,5.321059
63.05105,109.8716,0.3834982,0.9798071,5.321059
63.10089,109.2358,0.3344847,0.9798071,5.321059
63.1512,108.8544,0.2854725,0.9796425,5.321059
63.20112,100.3354,0.2628514,0.9798071,5.321059
63.25104,95.50377,0.176137,0.9798071,5.321059
63.30116,93.34225,0.04418037,0.9796425,5.321059
63.35048,91.18073,0.01024942,0.9798071,5.321059
63.40136,90.03638,-0.106626,0.9798071,5.321059
63.45219,85.71333,-0.4836448,0.9798071,5.321059
63.50056,85.71333,-0.7060858,0.9798071,5.321059
63.55105,90.92643,-0.7550993,0.9798071,5.321059
63.60096,139.3701,-0.7739491,0.9798071,5.321059
63.65015,133.3941,-0.8078814,0.9798071,5.321059
63.70108,128.4353,-0.8493537,0.9798071,5.321059
63.75027,119.0263,-0.8606635,0.9796425,5.321059
63.80021,114.4489,-0.8682048,0.9799718,5.327518
63.85102,111.906,-0.909677,0.9798071,5.327518
63.90008,111.6517,-0.9360681,0.9798071,5.321059
63.95173,105.4214,-0.9059057,0.9798071,5.327518
64.00035,101.3526,-0.909677,0.9798071,5.321059
64.05035,96.64812,-0.9285268,0.9799718,5.327518
64.10104,93.85085,-0.8531236,0.9798071,5.327518
64.1504,91.81647,-0.7890303,0.9796425,5.321059
64.2013,88.7649,-0.8644348,0.9798071,5.327518
64.25081,91.68932,-0.917217,0.9798071,5.327518
64.30119,134.5384,-0.8908259,0.9798071,5.327518
64.35085,139.4972,-0.7777204,0.9798071,5.327518
64.40085,134.5384,-0.7324782,0.9798071,5.327518
64.452,125.7652,-0.6382225,0.9798071,5.333977
64.50027,122.9679,-0.3328384,0.9798071,5.333977
64.55116,113.1774,-0.03122282,0.9798071,5.333977
64.60107,111.7788,0.2176092,0.9798071,5.333977
64.65105,111.3974,0.3759569,0.9796425,5.333977
64.70177,105.6757,0.5154548,0.9798071,5.333977
64.75079,100.4626,0.564467,0.9798071,5.340436
64.80084,96.90242,0.6134791,0.9798071,5.346895
64.85036,94.2323,0.7190447,0.9798071,5.346895
64.90047,92.32506,0.7605169,0.9799718,5.346895
64.95177,89.2735,0.7680569,0.9798071,5.346895
65.0001,89.0192,0.8132991,0.9798071,5.346895
65.05034,102.7513,0.8773924,0.9798071,5.340436
65.10059,140.1329,0.9980378,0.9798071,5.340436
65.15028,130.0882,1.197858,0.9798071,5.346895
65.2017,123.9851,1.265721,0.9796425,5.340436
65.25047,114.7032,1.43161,0.9798071,5.340436
65.30112,111.906,1.571107,0.9798071,5.340436
65.35085,110.6345,1.650281,0.9796425,5.346895
65.40111,111.0159,1.733224,0.9798071,5.340436
65.45117,103.387,1.786008,0.9798071,5.346895
65.50121,103.0055,1.804857,0.9799718,5.353354
65.55082,95.75809,1.789778,0.9798071,5.353354
65.60052,93.85085,1.767156,0.9796425,5.353354
65.6506,92.19792,1.706833,0.9798071,5.359814
65.70228,88.7649,1.499473,0.9798071,5.359814
65.75088,91.18073,1.326044,0.9796425,5.366273
65.80059,125.1294,1.258181,0.9798071,5.366273
65.85097,138.6072,1.133764,0.9798071,5.372732
65.90086,129.4525,1.073442,0.9798071,5.372732
65.95208,119.4077,0.9942678,0.9798071,5.372732
66.00053,111.5245,0.9452557,0.9798071,5.379191
66.05101,107.2015,0.8773924,0.9798071,5.379191
66.10065,108.4729,0.786908,0.9798071,5.379191
66.15117,109.6173,0.7152734,0.9798071,5.379191
66.20112,100.3354,0.6738026,0.9796425,5.385651
66.25085,97.79247,0.6210191,0.9798071,5.385651
66.30094,94.2323,0.5720069,0.9796425,5.385651
66.35084,93.08795,0.5795468,0.9799718,5.385651
66.40047,90.41783,0.4475902,0.9798071,5.385651
66.4513,86.34908,0.1271249,0.9798071,5.385651
66.50059,86.34908,-0.1217072,0.9798071,5.392109
66.55056,93.59654,-0.2461239,0.9798071,5.385651
66.60059,139.7515,-0.2913661,0.9798071,5.392109
66.65038,127.2909,-0.3592294,0.9798071,5.392109
66.70155,122.205,-0.494956,0.9798071,5.392109
66.75121,115.8476,-0.5741292,0.9798071,5.385651
66.80081,112.5417,-0.6231427,0.9798071,5.392109
66.85024,111.5245,-0.6985459,0.9798071,5.385651
66.9008,110.6345,-0.721167,0.9798071,5.385651
66.95159,103.387,-0.7136271,0.9798071,5.385651
67.00092,99.19109,-0.7588693,0.9798071,5.392109
67.05083,94.99519,-0.8003415,0.9796425,5.392109
67.10079,92.57936,-0.7814904,0.9798071,5.392109
67.15128,90.54498,-0.7928002,0.9798071,5.392109
67.20204,88.38345,-0.9624591,0.9796425,5.392109
67.25127,100.0811,-1.071795,0.9796425,5.392109
67.30096,140.1329,-1.098186,0.9798071,5.392109
67.35067,139.2429,-1.128347,0.9798071,5.392109
67.40125,132.8855,-1.169819,0.9798071,5.398569
67.45229,126.9095,-1.19621,0.9798071,5.398569
67.50031,122.7136,-1.211291,0.9798071,5.398569
67.55104,112.5417,-1.211291,0.9796425,5.398569
67.60051,112.4145,-1.207521,0.9798071,5.405028
67.65054,112.6688,-1.173589,0.9798071,5.405028
67.70175,104.5313,-1.083104,0.9796425,5.405028
67.75102,99.19109,-0.9285268,0.9798071,5.405028
67.80032,95.24948,-0.7965702,0.9798071,5.405028
67.85123,93.46941,-0.7023158,0.9796425,5.411487
67.90083,92.57936,-0.4195528,0.9798071,5.417946
67.95208,88.38345,-0.3479182,0.9798071,5.417946
68.00017,86.98483,-0.2008817,0.9798071,5.417946
68.05054,101.0983,0.07434276,0.9798071,5.424405
68.10054,140.2601,0.3043237,0.9796425,5.417946
68.15054,132.8855,0.4287404,0.9798071,5.417946
68.20129,126.7823,0.5116835,0.9798071,5.417946
68.25076,117.5005,0.590858,0.9798071,5.417946
68.30076,113.4317,0.6587213,0.9798071,5.411487
68.35083,112.2874,0.7265846,0.9798071,5.411487
68.40076,111.1431,0.817069,0.9798071,5.417946
68.45207,102.8784,0.9264045,0.9798071,5.411487
68.5004,101.0983,1.009349,0.9799718,5.411487
68.55029,96.13953,1.073442,0.9798071,5.411487
68.60081,94.2323,1.216709,0.9798071,5.411487
68.65055,93.34225,1.318504,0.9798071,5.411487
68.70203,90.29069,1.318504,0.9798071,5.411487
68.75025,85.96764,1.322274,0.9796425,5.411487
68.80125,94.10515,1.314733,0.9798071,5.405028
68.8507,134.7927,1.359975,0.9798071,5.405028
68.90028,136.4456,1.408989,0.9798071,5.405028
68.95235,124.4937,1.473082,0.9798071,5.366273
69.00048,114.7032,1.458001,0.9798071,5.359814
69.05107,105.2942,1.43538,0.9798071,5.359814
69.10087,106.4386,1.367517,0.9798071,5.346895
69.15133,108.0915,1.269491,0.9798071,5.353354
69.20224,108.4729,1.258181,0.9798071,5.359814
69.25136,98.42819,1.23179,0.9798071,5.366273
69.3003,96.01237,1.129994,0.9798071,5.372732
69.35129,91.81647,1.088522,0.9798071,5.372732
69.40076,90.79928,1.099833,0.9798071,5.379191
69.45154,89.2735,1.016889,0.9799718,5.372732
69.50031,88.63776,0.790678,0.9798071,5.379191
69.55103,85.96764,0.7680569,0.9798071,5.372732
69.60062,124.1122,0.7265846,0.9796425,5.372732
69.6505,136.9542,0.6926523,0.9798071,5.372732
69.70188,130.4697,0.6511815,0.9796425,5.366273
69.75053,122.205,0.598398,0.9798071,5.366273
69.80102,113.4317,0.5682369,0.9796425,5.366273
69.85098,109.2358,0.5003737,0.9798071,5.366273
69.90098,108.8544,0.4400503,0.9798071,5.359814
69.9515,109.1087,0.368417,0.9798071,5.359814
70.00027,99.82683,0.3495659,0.9798071,5.359814
70.0503,94.99519,0.2741627,0.9799718,5.359814
70.10033,92.19792,0.145976,0.9798071,5.359814
70.15032,91.56216,0.1007338,0.9799718,5.353354
70.20126,90.41783,0.04795032,0.9799718,5.346895
70.25088,87.23911,-0.3328384,0.9798071,5.346895
70.30104,86.73053,-0.6269127,0.9798071,5.346895
70.35085,122.8407,-0.6683849,0.9798071,5.346895
70.40075,141.4044,-0.6947759,0.9798071,5.346895
70.45168,135.4285,-0.7400181,0.9798071,5.340436
70.50105,128.0538,-0.7965702,0.9798071,5.346895
70.55048,119.4077,-0.8229626,0.9798071,5.340436
70.60027,113.4317,-0.8380424,0.9796425,5.340436
70.65048,112.9231,-0.8644348,0.9799718,5.333977
70.70178,112.6688,-0.9322981,0.9798071,5.333977
70.75138,111.5245,-0.9209869,0.9798071,5.327518
70.80071,99.06393,-0.8983658,0.9798071,5.333977
70.85112,95.24948,-0.9209869,0.9799718,5.333977
70.90028,92.57936,-0.909677,0.9798071,5.327518
70.95132,91.94361,-0.7852603,0.9799718,5.327518
71.00081,88.63776,-0.7739491,0.9798071,5.321059
71.05053,84.82329,-0.8041115,0.9799718,5.321059
71.10026,85.96764,-0.8116513,0.9798071,5.321059
71.15141,119.1534,-0.7588693,0.9798071,5.321059
71.2024,138.0986,-0.687236,0.9796425,5.321059
71.25042,128.4353,-0.5364283,0.9799718,5.321059
71.30022,123.2222,-0.3102173,0.9799718,5.321059
71.35129,115.0847,-0.008601722,0.9798071,5.314599
71.40089,112.2874,0.1949881,0.9798071,5.314599
71.45166,110.7616,0.3457959,0.9798071,5.314599
71.50065,110.6345,0.4928324,0.9798071,5.314599
71.55113,102.3698,0.5682369,0.9798071,5.314599
71.60077,97.28386,0.6021679,0.9798071,5.314599
71.65142,93.85085,0.6851124,0.9798071,5.321059
71.70211,92.96081,0.7605169,0.9798071,5.314599
71.75026,91.05358,0.8057591,0.9799718,5.314599
71.80031,87.49342,0.8283803,0.9798071,5.30814
71.85126,93.978,0.8585413,0.9796425,5.30814
71.90102,122.205,0.9113234,0.9798071,5.30814
71.95214,138.0986,1.084752,0.9798071,5.30814
72.00126,130.4697,1.258181,0.9796425,5.314599
72.05077,122.8407,1.310963,0.9798071,5.314599
72.10126,113.4317,1.454231,0.9798071,5.314599
72.15063,109.4901,1.514553,0.9799718,5.314599
72.20131,109.4901,1.597498,0.9798071,5.314599
72.25101,110.3802,1.676672,0.9798071,5.314599
72.30075,102.2427,1.718144,0.9798071,5.314599
72.35093,97.66531,1.729454,0.9798071,5.321059
72.40034,94.99519,1.725684,0.9798071,5.321059
72.45222,92.19792,1.710603,0.9798071,5.321059
72.50024,91.05358,1.687982,0.9799718,5.321059
72.55127,89.78209,1.503243,0.9796425,5.321059
72.6013,87.87486,1.356205,0.9798071,5.321059
72.6509,126.528,1.299653,0.9798071,5.327518
72.70171,140.1329,1.23179,0.9796425,5.321059
72.75065,126.7823,1.133764,0.9798071,5.321059
72.80058,119.4077,1.088522,0.9799718,5.321059
72.85034,111.1431,1.065901,0.9798071,5.327518
72.90142,111.1431,1.024429,0.9798071,5.327518
72.95158,109.8716,0.982958,0.9799718,5.327518
73.00028,110.6345,0.9452557,0.9796425,5.327518
73.05142,102.2427,0.9037834,0.9798071,5.333977
73.10038,96.77527,0.8283803,0.9798071,5.333977
73.15038,94.61374,0.7718268,0.9798071,5.333977
73.20176,93.08795,0.7793667,0.9798071,5.333977
73.25101,90.79928,0.7529757,0.9798071,5.333977
73.30103,85.58618,0.6398702,0.9798071,5.340436
73.35105,93.72369,0.5418459,0.9798071,5.340436
73.40105,122.0779,0.4513615,0.9799718,5.340436
73.45229,141.023,0.4098893,0.9798071,5.333977
73.50037,138.48,0.3495659,0.9798071,5.333977
73.55042,127.2909,0.3118636,0.9798071,5.314599
73.60042,119.7892,0.2967838,0.9798071,5.321059
73.65102,115.4661,0.2892425,0.9798071,5.327518
73.70158,113.4317,0.2703913,0.9798071,5.327518
73.75046,112.6688,0.2590815,0.9799718,5.327518
73.80141,107.0743,0.2666214,0.9796425,5.333977
73.85142,100.5897,0.2590815,0.9798071,5.333977
73.90061,97.53816,0.1874482,0.9799718,5.333977
73.95193,95.37663,0.176137,0.9798071,5.327518
74.00063,94.99519,0.2477702,0.9798071,5.333977
74.05112,91.81647,0.1422061,0.9798071,5.327518
74.10074,88.38345,-0.1405583,0.9799718,5.327518
74.15063,101.2255,-0.2498939,0.9798071,5.327518
74.20189,142.0402,-0.2649751,0.9798071,5.327518
74.25064,138.0986,-0.298906,0.9798071,5.327518
74.30148,132.2497,-0.4384026,0.9796425,5.327518
74.35036,129.1982,-0.521347,0.9798071,5.327518
74.40046,120.1706,-0.5401982,0.9796425,5.327518
74.45147,115.0847,-0.5515081,0.9798071,5.321059
74.50133,113.8132,-0.5552794,0.9799718,5.327518
74.55084,114.4489,-0.5665892,0.9798071,5.327518
74.60099,105.5485,-0.5326583,0.9798071,5.321059
74.65133,102.3698,-0.5175771,0.9799718,5.321059
74.70158,97.9196,-0.5439681,0.9798071,5.321059
74.75122,94.86804,-0.5364283,0.9798071,5.321059
74.80124,93.34225,-0.4497138,0.9798071,5.314599
74.85121,92.19792,-0.4874161,0.9798071,5.321059
74.9007,87.49342,-0.5515081,0.9799718,5.314599
74.95145,91.94361,-0.5854404,0.9798071,5.314599
75.00033,141.7859,-0.5138072,0.9798071,5.314599
75.05146,137.2085,-0.3403783,0.9798071,5.314599
75.10084,129.9611,-0.2121916,0.9799718,5.314599
75.15035,123.2222,0.04795032,0.9798071,5.314599
75.20148,115.339,0.2402303,0.9798071,5.314599
75.25033,113.4317,0.3797269,0.9798071,5.30814
75.30148,112.9231,0.5380759,0.9799718,5.30814
75.35149,113.4317,0.6059392,0.9798071,5.30814
75.40102,104.5313,0.6624913,0.9798071,5.30814
75.45174,98.80965,0.7152734,0.9799718,5.30814
75.50053,98.04675,0.7718268,0.9799718,5.30814
75.55029,94.2323,0.817069,0.9798071,5.30814
75.60136,92.57936,0.9150933,0.9798071,5.30814
75.65124,91.56216,0.9678768,0.9799718,5.301681
75.70144,88.7649,0.9565656,0.9798071,5.301681
75.75112,89.0192,0.986728,0.9798071,5.301681
75.80099,133.0126,1.080982,0.9798071,5.301681
75.85085,139.7515,1.216709,0.9799718,5.301681
75.90144,133.5212,1.341126,0.9798071,5.301681
75.95239,125.5108,1.469311,0.9798071,5.295222
76.00101,116.6105,1.559795,0.9798071,5.295222
76.05049,113.8132,1.64651,0.9798071,5.295222
76.10133,112.2874,1.721914,0.9798071,5.295222
76.15026,111.7788,1.786008,0.9799718,5.295222
76.20148,105.2942,1.827479,0.9796425,5.295222
76.25053,100.2083,1.857641,0.9798071,5.295222
76.30048,96.90242,1.853871,0.9799718,5.295222
76.35032,94.86804,1.819939,0.9798071,5.288763
76.40128,92.45221,1.770926,0.9798071,5.288763
76.45253,91.43503,1.714373,0.9798071,5.288763
76.50111,89.90925,1.514553,0.9799718,5.288763
76.55101,90.29069,1.363747,0.9798071,5.288763
76.60051,115.9747,1.322274,0.9798071,5.282304
76.65053,139.3701,1.224249,0.9799718,5.282304
76.70169,131.1054,1.145076,0.9798071,5.282304
76.75101,123.2222,1.092292,0.9799718,5.288763
76.80103,114.9575,1.054591,0.9798071,5.282304
76.85102,112.2874,1.005579,0.9798071,5.282304
76.90108,112.1602,0.9565656,0.9798071,5.282304
76.95174,111.5245,0.8962436,0.9798071,5.282304
77.00137,102.6241,0.8246089,0.9798071,5.282304
77.05079,98.04675,0.790678,0.9799718,5.282304
77.10083,95.63092,0.7341245,0.9799718,5.282304
77.15135,92.45221,0.6926523,0.9798071,5.288763
77.20175,91.43503,0.6700312,0.9796425,5.288763
77.25085,90.67213,0.6700312,0.9799718,5.288763
77.30032,87.11198,0.4890624,0.9798071,5.288763
77.35127,85.07759,0.2590815,0.9799718,5.295222
77.40076,93.2151,0.145976,0.9799718,5.288763
77.45145,142.0402,0.02532923,0.9799718,5.288763
77.5004,141.6587,-0.04630401,0.9799718,5.282304
77.55152,128.4353,-0.1556395,0.9798071,5.282304
77.601,123.6036,-0.2272728,0.9798071,5.282304
77.65098,116.6105,-0.2800549,0.9799718,5.282304
77.7018,114.1946,-0.3592294,0.9799718,5.282304
77.75111,113.4317,-0.5024959,0.9796425,5.282304
77.80101,112.1602,-0.5364283,0.9796425,5.288763
77.85098,103.1327,-0.521347,0.9798071,5.288763
77.90052,98.30104,-0.5401982,0.9798071,5.288763
77.95152,94.2323,-0.5967503,0.9798071,5.288763
78.00147,92.19792,-0.6382225,0.9798071,5.288763
78.05148,90.16354,-0.6080615,0.9798071,5.288763
78.10121,89.5278,-0.6080615,0.9798071,5.288763
78.15064,86.47623,-0.6947759,0.9798071,5.288763
78.20178,88.38345,-0.7814904,0.9796425,5.288763
78.25152,104.1499,-0.8078814,0.9796425,5.288763
78.30039,137.8443,-0.8154213,0.9796425,5.288763
78.35072,129.9611,-0.8342724,0.9798071,5.282304
78.40047,125.638,-0.8568935,0.9798071,5.288763
78.45152,120.5521,-0.8418124,0.9798071,5.282304
78.50152,115.7204,-0.7928002,0.9796425,5.282304
78.55089,113.8132,-0.717397,0.9798071,5.288763
78.60147,112.1602,-0.6306826,0.9798071,5.288763
78.65138,104.5313,-0.4082416,0.9798071,5.301681
78.70197,100.3354,-0.1631795,0.9799718,5.301681
78.75096,95.37663,0.1610572,0.9798071,5.30814
78.80096,93.08795,0.2930138,0.9798071,5.30814
78.85085,92.32506,0.4739826,0.9799718,5.314599
78.90096,90.29069,0.6059392,0.9798071,5.314599
78.95248,88.25631,0.6134791,0.9799718,5.314599
79.00073,84.44184,0.6210191,0.9798071,5.314599
79.05047,98.30104,0.6436402,0.9799718,5.30814
79.10147,142.0402,0.7001936,0.9798071,5.30814
79.15085,138.0986,0.7605169,0.9798071,5.30814
79.20157,129.5796,0.8736225,0.9798071,5.301681
79.25126,123.2222,0.9904979,0.9798071,5.30814
79.30093,115.0847,1.065901,0.9798071,5.30814
79.3508,114.1946,1.103603,0.9798071,5.30814
79.40074,113.686,1.179007,0.9799718,5.30814
79.45204,111.7788,1.280802,0.9798071,5.314599
79.50142,104.4042,1.375057,0.9798071,5.314599
79.55132,98.6825,1.43538,0.9798071,5.314599
79.60126,95.75809,1.458001,0.9798071,5.314599
79.65076,92.96081,1.525864,0.9798071,5.321059
79.70179,91.05358,1.582416,0.9798071,5.314599
79.7513,89.5278,1.578646,0.9799718,5.321059
79.80123,85.33189,1.480622,0.9798071,5.321059
79.8512,85.33189,1.401448,0.9798071,5.321059
79.90151,117.3734,1.359975,0.9798071,5.321059
79.9523,134.4113,1.303423,0.9799718,5.314599
80.00098,119.1534,1.167697,0.9798071,5.314599
80.05151,111.906,1.107373,0.9798071,5.314599
80.1015,105.93,1.084752,0.9799718,5.321059
80.15053,104.5313,1.058361,0.9798071,5.321059
80.20222,106.3114,0.9791867,0.9798071,5.327518
80.25098,108.7272,0.9339445,0.9798071,5.327518
80.30104,100.7169,0.8962436,0.9798071,5.333977
80.3515,96.01237,0.8434601,0.9798071,5.333977
80.4015,92.96081,0.7982179,0.9798071,5.333977
80.45175,91.43503,0.7492057,0.9799718,5.346895
80.5013,91.43503,0.7492057,0.9799718,5.353354
80.55073,88.7649,0.7190447,0.9798071,5.359814
80.60135,85.71333,0.6172491,0.9798071,5.366273
80.65102,91.43503,0.4664413,0.9798071,5.359814
80.70231,111.0159,0.3759569,0.9799718,5.359814
80.75037,140.7687,0.3457959,0.9798071,5.359814
80.80094,132.2497,0.2930138,0.9799718,5.353354
80.85219,125.638,0.2326904,0.9799718,5.353354
80.90091,118.5177,0.1949881,0.9799718,5.353354
80.95185,113.4317,0.1723671,0.9798071,5.353354
81.00108,111.906,0.1045038,0.9799718,5.353354
81.05107,110.1259,0.006479473,0.9798071,5.353354
81.10238,104.7856,-0.1254772,0.9799718,5.353354
81.15081,99.57254,-0.1443283,0.9798071,5.359814
81.20174,94.99519,-0.2272728,0.9798071,5.353354
81.2505,91.43503,-0.3441482,0.9798071,5.353354
81.30085,90.67213,-0.468565,0.9798071,5.359814
81.35198,89.90925,-0.4497138,0.9799718,5.359814
81.40118,86.73053,-0.5552794,0.9798071,5.359814
81.45219,83.29751,-0.7098571,0.9798071,5.359814
81.50101,85.58618,-0.8154213,0.9798071,5.359814
81.55106,112.9231,-0.8908259,0.9799718,5.359814
81.6022,140.1329,-0.909677,0.9798071,5.359814
81.6507,132.2497,-0.9662291,0.9798071,5.359814
81.7019,127.1638,-1.037862,0.9799718,5.359814
81.75146,117.6276,-1.045404,0.9798071,5.359814
81.80094,115.5933,-1.045404,0.9798071,5.359814
81.85249,115.0847,-1.037862,0.9798071,5.359814
81.90118,113.0503,-1.030322,0.9796425,5.359814
81.95216,104.0227,-0.9662291,0.9799718,5.359814
82.00095,99.19109,-0.8191913,0.9798071,5.366273
82.05061,94.86804,-0.7437881,0.9798071,5.359814
82.10258,92.19792,-0.6683849,0.9801366,5.366273
82.15079,90.67213,-0.4421739,0.9799718,5.359814
82.20197,88.7649,-0.1405583,0.9798071,5.359814
82.25068,86.34908,-0.04630401,0.9798071,5.366273
82.30086,83.42466,0.1271249,0.9799718,5.366273
82.35214,113.0503,0.3118636,0.9799718,5.366273
82.40047,142.9302,0.4513615,0.9798071,5.366273
82.45172,137.7171,0.5531558,0.9799718,5.366273
82.50117,129.4525,0.6021679,0.9798071,5.366273
82.5512,126.2737,0.6398702,0.9799718,5.366273
82.60145,113.9403,0.7115034,0.9798071,5.372732
82.65099,112.1602,0.7755968,0.9798071,5.372732
82.70203,111.7788,0.8283803,0.9799718,5.372732
82.75049,110.5073,0.9565656,0.9798071,5.379191
82.80099,101.0983,1.054591,0.9798071,5.379191
82.85217,96.90242,1.111143,0.9799718,5.379191
82.9007,94.10515,1.182777,0.9799718,5.385651
82.95174,92.19792,1.322274,0.9798071,5.385651
83.00116,91.56216,1.420299,0.9798071,5.385651
83.05142,89.14634,1.461771,0.9798071,5.392109
83.10218,84.44184,1.43915,0.9799718,5.392109
83.15044,86.73053,1.416529,0.9798071,5.392109
83.2024,123.095,1.43161,0.9798071,5.392109
83.25095,139.7515,1.420299,0.9799718,5.392109
83.30082,133.9027,1.382596,0.9798071,5.392109
83.352,121.315,1.314733,0.9798071,5.392109
83.4004,113.8132,1.277032,0.9798071,5.398569
83.45232,109.8716,1.23179,0.9798071,5.398569
83.50094,108.7272,1.160155,0.9799718,5.398569
83.55094,109.4901,1.114913,0.9798071,5.398569
83.60155,105.5485,1.096063,0.9798071,5.398569
83.65128,99.82683,1.084752,0.9798071,5.398569
83.70202,94.48659,1.050821,0.9799718,5.405028
83.75069,91.30788,0.9641069,0.9798071,5.405028
83.80108,89.5278,0.9188647,0.9799718,5.405028
83.85178,88.25631,0.8811623,0.9799718,5.405028
83.90145,87.49342,0.7944479,0.9798071,5.405028
83.95145,82.53461,0.7001936,0.9798071,5.405028
84.00142,87.23911,0.6624913,0.9798071,5.405028
84.05109,141.6587,0.6361002,0.9798071,5.405028
84.10221,138.8615,0.5795468,0.9799718,5.405028
84.15073,128.5624,0.4890624,0.9798071,5.405028
84.20167,123.2222,0.402348,0.9798071,5.405028
84.25098,113.8132,0.3910381,0.9799718,5.405028
84.30044,109.7444,0.3608771,0.9798071,5.398569
84.35181,109.4901,0.3043237,0.9798071,5.398569
84.40041,109.6173,0.2477702,0.9799718,5.405028
84.45224,100.2083,0.1912182,0.9798071,5.398569
84.50056,98.80965,0.176137,0.9798071,5.398569
84.55045,94.35944,0.1045038,0.9798071,5.398569
84.60173,89.90925,-0.06892511,0.9798071,5.398569
84.65067,88.63776,-0.1330184,0.9798071,5.398569
84.70166,87.87486,-0.1103974,0.9798071,5.398569
84.75045,84.0604,-0.3102173,0.9799718,5.398569
84.80045,82.02603,-0.5741292,0.9798071,5.398569
84.85145,89.90925,-0.6570736,0.9798071,5.392109
84.90125,141.6587,-0.6985459,0.9798071,5.392109
84.95217,136.3185,-0.721167,0.9798071,5.385651
85.00072,129.9611,-0.7362482,0.9799718,5.385651
85.05145,125.638,-0.7588693,0.9799718,5.385651
85.10166,116.6105,-0.7664092,0.9799718,5.385651
85.1516,113.8132,-0.7664092,0.9798071,5.379191
85.20143,112.2874,-0.7664092,0.9798071,5.392109
85.25072,110.8888,-0.7664092,0.9798071,5.392109
85.30043,102.7513,-0.7626392,0.9798071,5.398569
85.35244,96.77527,-0.7400181,0.9799718,5.398569
85.40124,92.45221,-0.7249369,0.9798071,5.398569
85.45172,91.05358,-0.7136271,0.9798071,5.398569
85.50092,90.67213,-0.6608436,0.9798071,5.398569
85.55048,88.63776,-0.528887,0.9799718,5.392109
85.60172,85.58618,-0.3969303,0.9796425,5.392109
85.65126,82.40748,-0.3215271,0.9799718,5.385651
85.70216,107.2015,-0.1820306,0.9798071,5.379191
85.75156,141.6587,0.1799069,0.9799718,5.379191
85.8006,137.2085,0.338256,0.9798071,5.372732
85.85191,128.4353,0.4966037,0.9799718,5.372732
85.90156,123.6036,0.5833181,0.9798071,5.366273
85.95148,115.7204,0.6436402,0.9798071,5.366273
86.00105,113.0503,0.6964236,0.9798071,5.366273
86.05051,112.1602,0.7680569,0.9798071,5.366273
86.10228,111.3974,0.817069,0.9799718,5.366273
86.15092,102.2427,0.9226346,0.9798071,5.366273
86.20155,97.28386,1.0282,0.9798071,5.359814
86.25093,93.72369,1.077212,0.9798071,5.359814
86.30106,91.68932,1.212939,0.9798071,5.359814
86.35157,89.90925,1.337354,0.9798071,5.359814
86.40128,88.25631,1.416529,0.9799718,5.359814
86.45238,85.96764,1.412759,0.9798071,5.353354
86.50104,83.67896,1.405218,0.9798071,5.359814
86.55122,82.53461,1.43161,0.9799718,5.359814
86.60176,140.1329,1.465541,0.9798071,5.359814
86.6509,134.5384,1.582416,0.9798071,5.353354
86.702,125.638,1.680442,0.9798071,5.359814
86.75055,117.6276,1.691752,0.9798071,5.359814
86.80118,111.0159,1.680442,0.9798071,5.359814
86.85204,108.7272,1.657821,0.9798071,5.359814
86.90157,109.8716,1.608809,0.9799718,5.359814
86.95255,111.0159,1.574876,0.9799718,5.366273
87.00105,99.44539,1.525864,0.9798071,5.366273
87.0508,95.24948,1.458001,0.9798071,5.372732
87.10172,92.45221,1.352435,0.9798071,5.372732
87.15115,89.40065,1.295883,0.9799718,5.372732
87.20232,88.63776,1.254411,0.9798071,5.379191
87.25152,87.87486,1.137534,0.9798071,5.379191
87.30071,83.29751,0.9490256,0.9798071,5.385651
87.35205,87.11198,0.8510014,0.9799718,5.385651
87.40051,114.5761,0.8283803,0.9798071,5.392109
87.45271,139.3701,0.786908,0.9798071,5.392109
87.5005,135.047,0.7416658,0.9798071,5.398569
87.55095,119.2806,0.6888824,0.9798071,5.398569
87.60191,113.4317,0.6549514,0.9798071,5.405028
87.65154,110.6345,0.6285604,0.9798071,5.405028
87.70238,110.1259,0.5870881,0.9799718,5.405028
87.75044,109.8716,0.5229948,0.9798071,5.411487
87.80142,103.2598,0.4626714,0.9798071,5.411487
87.8524,97.9196,0.4400503,0.9799718,5.417946
87.90079,94.48659,0.398578,0.9798071,5.417946
87.95241,92.07076,0.3043237,0.9799718,5.417946
88.00167,90.92643,0.2176092,0.9799718,5.424405
88.05151,90.67213,0.2138393,0.9798071,5.424405
88.10248,88.7649,0.02155928,0.9799718,5.424405
88.15115,84.0604,-0.3479182,0.9798071,5.430864
88.20242,85.20473,-0.5590494,0.9798071,5.437324
88.2507,112.1602,-0.5967503,0.9798071,5.443783
88.30096,141.6587,-0.6231427,0.9799718,5.443783
88.35242,131.8683,-0.6570736,0.9798071,5.450242
88.40147,128.3081,-0.7098571,0.9798071,5.443783
88.45183,118.1362,-0.7287069,0.9798071,5.443783
88.50065,116.4833,-0.7400181,0.9798071,5.443783
88.55126,115.339,-0.7362482,0.9798071,5.443783
88.60215,113.3046,-0.7550993,0.9798071,5.437324
88.65051,106.82,-0.7588693,0.9799718,5.443783
88.70226,101.3526,-0.747558,0.9799718,5.443783
88.75166,96.90242,-0.7249369,0.9798071,5.443783
88.80133,94.10515,-0.717397,0.9798071,5.443783
88.85238,92.19792,-0.721167,0.9798071,5.443783
88.90166,90.16354,-0.6683849,0.9799718,5.437324
88.95166,89.14634,-0.5590494,0.9799718,5.437324
89.00151,87.11198,-0.5401982,0.9798071,5.437324
89.05089,83.80611,-0.4007017,0.9798071,5.437324
89.10184,109.1087,-0.2310427,0.9801366,5.430864
89.15083,142.0402,0.09319391,0.9798071,5.430864
89.20204,138.0986,0.3118636,0.9798071,5.430864
89.25053,129.8339,0.4513615,0.9798071,5.430864
89.30141,124.6208,0.560697,0.9799718,5.430864
89.35256,118.1362,0.6285604,0.9799718,5.430864
89.40132,113.8132,0.6775725,0.9798071,5.424405
89.45245,113.686,0.7567456,0.9798071,5.424405
89.50152,113.9403,0.8095291,0.9801366,5.424405
89.55054,105.1671,0.8773924,0.9798071,5.424405
89.6015,99.19109,1.016889,0.9798071,5.417946
89.65113,96.77527,1.080982,0.9798071,5.417946
89.70173,95.24948,1.190318,0.9799718,5.417946
89.75166,91.81647,1.341126,0.9798071,5.417946
89.80164,90.67213,1.43915,0.9798071,5.417946
89.85152,89.5278,1.476852,0.9798071,5.417946
89.90162,84.82329,1.461771,0.9799718,5.411487
89.95255,83.17036,1.458001,0.9799718,5.405028
90.00117,112.5417,1.514553,0.9798071,5.411487
90.05117,138.9886,1.537174,0.9798071,5.405028
90.10247,134.2841,1.571107,0.9799718,5.405028
90.15147,124.8751,1.548485,0.9799718,5.405028
90.20268,118.8991,1.518324,0.9798071,5.398569
90.25103,111.3974,1.484392,0.9798071,5.398569
90.30057,111.7788,1.42784,0.9798071,5.398569
90.35224,112.6688,1.326044,0.9799718,5.398569
90.40144,103.387,1.295883,0.9798071,5.398569
90.45259,98.30104,1.277032,0.9798071,5.392109
90.50047,97.66531,1.212939,0.9798071,5.398569
90.55115,94.86804,1.145076,0.9798071,5.398569
90.60163,91.81647,1.096063,0.9798071,5.398569
90.65102,90.79928,1.084752,0.9798071,5.398569
90.70261,89.0192,1.069671,0.9799718,5.398569
90.75137,86.47623,0.8811623,0.9796425,5.398569
90.80064,81.64457,0.783138,0.9798071,5.392109
90.85194,106.6929,0.7416658,0.9798071,5.385651
90.9013,140.8958,0.7115034,0.9799718,5.385651
90.95152,137.59,0.6813424,0.9798071,5.385651
91.00137,127.5452,0.6172491,0.9798071,5.379191
91.0509,122.4593,0.5305346,0.9798071,5.379191
91.10177,114.0675,0.4890624,0.9799718,5.379191
91.15089,112.9231,0.4211991,0.9799718,5.379191
91.20164,111.7788,0.3948081,0.9798071,5.372732
91.25119,110.6345,0.338256,0.9798071,5.372732
91.30087,101.0983,0.2892425,0.9798071,5.379191
91.35244,96.52097,0.2138393,0.9798071,5.366273
91.40112,93.34225,0.1572859,0.9799718,5.372732
91.4521,91.56216,-0.004831772,0.9798071,5.372732
91.50076,90.29069,-0.2762849,0.9799718,5.366273
91.55116,87.87486,-0.3328384,0.9799718,5.366273
91.60231,87.49342,-0.3252971,0.9799718,5.366273
91.65089,83.67896,-0.5401982,0.9798071,5.366273
91.70248,80.50024,-0.6834647,0.9798071,5.366273
91.75066,87.11198,-0.7550993,0.9798071,5.359814
91.80164,141.6587,-0.7701791,0.9798071,5.359814
91.85163,136.9542,-0.7890303,0.9798071,5.359814
91.90069,131.4868,-0.8191913,0.9799718,5.353354
91.95193,126.0195,-0.8682048,0.9798071,5.353354
92.00067,117.3734,-0.8870559,0.9798071,5.353354
92.05138,115.0847,-0.8795146,0.9799718,5.353354
92.10235,113.8132,-0.8795146,0.9799718,5.346895
92.15091,108.7272,-0.8795146,0.9798071,5.353354
92.20239,102.2427,-0.8644348,0.9799718,5.346895
92.25116,97.9196,-0.8455837,0.9798071,5.346895
92.30119,94.48659,-0.7965702,0.9798071,5.346895
92.35191,92.19792,-0.747558,0.9798071,5.346895
92.40173,89.0192,-0.7249369,0.9798071,5.346895
92.45169,87.49342,-0.6419938,0.9798071,5.346895
92.50174,86.34908,-0.3516881,0.9799718,5.340436
92.55161,84.44184,-0.1330184,0.9798071,5.340436
92.60239,81.00883,-0.02745287,0.9798071,5.340436
92.6509,80.11879,0.2100693,0.9798071,5.340436
92.70196,96.90242,0.3948081,0.9799718,5.333977
92.7514,137.7171,0.5380759,0.9798071,5.333977
92.80118,135.8099,0.6323303,0.9798071,5.333977
92.85243,126.0195,0.6624913,0.9798071,5.333977
92.90166,121.315,0.7228147,0.9799718,5.333977
92.95161,114.9575,0.8019878,0.9798071,5.333977
93.00085,111.3974,0.9037834,0.9798071,5.333977
93.05109,111.5245,1.013119,0.9798071,5.333977
93.10235,105.93,1.096063,0.9799718,5.333977
93.15087,101.7341,1.167697,0.9799718,5.333977
93.20167,96.52097,1.288342,0.9799718,5.333977
93.25113,93.72369,1.363747,0.9798071,5.333977
93.30112,91.43503,1.42784,0.9798071,5.327518
93.35218,88.25631,1.503243,0.9798071,5.327518
93.4007,86.98483,1.597498,0.9798071,5.327518
93.45178,86.34908,1.669131,0.9798071,5.333977
93.50055,85.84048,1.650281,0.9799718,5.327518
93.5507,80.88168,1.578646,0.9799718,5.327518
93.60186,85.96764,1.522094,0.9798071,5.327518
93.65068,123.2222,1.461771,0.9798071,5.327518
93.70235,137.7171,1.344895,0.9798071,5.327518
93.75085,123.9851,1.261951,0.9798071,5.327518
93.80168,118.1362,1.148846,0.9798071,5.327518
93.85173,110.3802,1.107373,0.9798071,5.321059
93.90143,107.5829,1.080982,0.9798071,5.327518
93.95235,107.8372,1.03951,0.9799718,5.327518
94.00067,109.1087,1.001808,0.9798071,5.327518
94.05078,99.44539,0.9791867,0.9799718,5.327518
94.1021,94.86804,0.9264045,0.9798071,5.321059
94.15138,92.19792,0.8698511,0.9798071,5.321059
94.20183,89.78209,0.790678,0.9798071,5.321059
94.25078,87.74771,0.7416658,0.9798071,5.321059
94.30086,86.34908,0.6888824,0.9798071,5.321059
94.35183,84.69615,0.7077335,0.9798071,5.321059
94.40129,82.40748,0.6474101,0.9798071,5.321059
94.45247,79.22876,0.3759569,0.9799718,5.321059
94.50098,78.21156,0.2477702,0.9798071,5.321059
94.55062,89.0192,0.1723671,0.9798071,5.314599
94.60226,141.6587,0.09319391,0.9798071,5.314599
94.65125,131.1054,-0.06138382,0.9798071,5.314599
94.70219,125.5108,-0.1933405,0.9799718,5.314599
94.75076,118.772,-0.2536638,0.9798071,5.314599
94.80116,112.5417,-0.2762849,0.9798071,5.314599
94.85237,109.7444,-0.4157815,0.9798071,5.314599
94.90101,108.7272,-0.498726,0.9799718,5.30814
94.95203,108.7272,-0.5024959,0.9799718,5.30814
95.00066,99.06393,-0.5552794,0.9798071,5.30814
95.05122,95.37663,-0.5854404,0.9798071,5.30814
95.10214,91.43503,-0.5854404,0.9799718,5.30814
95.15076,88.63776,-0.6193714,0.9799718,5.30814
95.20183,86.98483,-0.6570736,0.9796425,5.314599
95.25063,85.71333,-0.6721548,0.9799718,5.314599
95.3011,84.82329,-0.6382225,0.9799718,5.314599
95.35264,81.64457,-0.6796947,0.9798071,5.314599
95.40108,77.83012,-0.7777204,0.9798071,5.314599
95.45242,80.50024,-0.8568935,0.9798071,5.30814
95.50141,109.1087,-0.8644348,0.9799718,5.30814
95.55166,135.6828,-0.8606635,0.9799718,5.30814
95.6021,128.6896,-0.8568935,0.9798071,5.30814
95.65175,124.3665,-0.8531236,0.9799718,5.30814
95.70181,116.9919,-0.7777204,0.9799718,5.301681
95.7515,111.7788,-0.7023158,0.9798071,5.301681
95.8008,109.7444,-0.6005216,0.9798071,5.301681
95.85274,109.1087,-0.3705393,0.9796425,5.301681
95.90141,102.6241,-0.1556395,0.9798071,5.301681
95.95242,98.04675,0.1949881,0.9798071,5.301681
96.00092,92.07076,0.3533358,0.9798071,5.301681
96.05141,91.43503,0.5154548,0.9798071,5.301681
96.10213,88.25631,0.6134791,0.9799718,5.295222
96.15145,86.60338,0.6662613,0.9798071,5.295222
96.20241,85.20473,0.7341245,0.9798071,5.295222
96.25128,83.67896,0.8057591,0.9798071,5.295222
96.30166,80.37309,0.817069,0.9799718,5.295222
96.35165,77.44867,0.820839,0.9798071,5.295222
96.40165,86.34908,0.8585413,0.9798071,5.295222
96.45241,125.2566,0.9301745,0.9798071,5.288763
96.50108,140.0058,1.054591,0.9798071,5.295222
96.55128,138.0986,1.201628,0.9798071,5.288763
96.60173,120.0435,1.265721,0.9798071,5.288763
96.65128,113.4317,1.322274,0.9798071,5.288763
96.70218,109.363,1.43161,0.9798071,5.288763
96.75063,108.3458,1.503243,0.9798071,5.288763
96.80138,109.1087,1.563567,0.9798071,5.288763
96.85178,101.4798,1.593728,0.9798071,5.288763
96.90065,97.15671,1.597498,0.9798071,5.282304
96.95178,92.57936,1.589958,0.9798071,5.288763
97.00108,90.16354,1.578646,0.9798071,5.288763
97.05112,88.7649,1.522094,0.9798071,5.288763
97.10228,86.60338,1.43161,0.9799718,5.288763
97.15071,85.33189,1.375057,0.9798071,5.288763
97.20209,83.17036,1.322274,0.9699246,5.288763
97.25165,78.59301,1.133764,0.9697599,5.282304
97.30165,81.89888,1.03574,0.9699246,5.282304
97.35161,100.2083,0.9942678,0.9699246,5.282304
97.40158,136.4456,0.9113234,0.9699246,5.282304
97.45165,132.1226,0.8660812,0.9699246,5.282304
97.50158,120.4249,0.7982179,0.9699246,5.275845
97.55095,110.253,0.7454358,0.9699246,5.282304
97.60184,105.93,0.7341245,0.9699246,5.282304
97.65173,106.3114,0.6888824,0.9699246,5.282304
97.7023,107.0743,0.6474101,0.9699246,5.282304
97.75098,107.4557,0.6172491,0.9699246,5.282304
97.80064,96.01237,0.5757769,0.9697599,5.282304
97.85197,91.56216,0.5305346,0.9697599,5.282304
97.90086,89.90925,0.4815225,0.9697599,5.282304
97.95267,86.85767,0.3759569,0.9699246,5.282304
98.00108,85.20473,0.3005537,0.9697599,5.282304
98.05145,84.569,0.2854725,0.9699246,5.282304
98.10252,82.91606,0.2289205,0.9699246,5.282304
98.15125,79.48306,-0.1556395,0.9699246,5.282304
98.20202,84.82329,-0.4534838,0.9697599,5.275845
98.25134,104.4042,-0.5590494,0.9697599,5.282304
98.30176,140.1329,-0.5816705,0.9699246,5.275845
98.35239,133.7755,-0.6306826,0.9699246,5.282304
98.40085,127.2909,-0.6683849,0.9697599,5.275845
98.45222,123.2222,-0.687236,0.9697599,5.282304
98.50152,115.7204,-0.6910059,0.9699246,5.282304
98.55124,111.0159,-0.7098571,0.9697599,5.282304
98.60232,109.4901,-0.7400181,0.9697599,5.282304
98.65148,109.6173,-0.751328,0.9697599,5.282304
98.70242,99.82683,-0.751328,0.9699246,5.282304
98.75072,95.37663,-0.7550993,0.9697599,5.282304
98.80172,91.81647,-0.7400181,0.9699246,5.282304
98.85196,90.29069,-0.747558,0.9699246,5.288763
98.90133,89.14634,-0.7701791,0.9700893,5.288763
98.95239,87.49342,-0.7400181,0.9699246,5.288763
99.0006,86.34908,-0.7098571,0.9699246,5.288763
99.05122,82.91606,-0.7362482,0.9699246,5.288763
99.10235,80.24594,-0.8116513,0.9699246,5.288763
99.15081,91.05358,-0.8418124,0.9697599,5.288763
99.2021,140.3873,-0.8116513,0.9697599,5.288763
99.25159,135.4285,-0.8041115,0.9699246,5.288763
99.3006,128.4353,-0.7928002,0.9697599,5.288763
99.35264,124.1122,-0.7362482,0.9697599,5.295222
99.40136,119.1534,-0.6570736,0.9697599,5.288763
99.45236,113.686,-0.4874161,0.9699246,5.295222
99.50096,112.5417,-0.2461239,0.9699246,5.295222
99.55081,112.1602,-0.001061821,0.9699246,5.295222
99.60273,104.1499,0.2666214,0.9697599,5.288763
99.65151,100.3354,0.398578,0.9699246,5.295222
99.70182,96.90242,0.5456159,0.9699246,5.295222
99.75161,94.35944,0.6323303,0.9699246,5.295222
99.80136,91.81647,0.6700312,0.9699246,5.301681
99.8522,89.90925,0.7228147,0.9700893,5.295222
99.90113,89.14634,0.7793667,0.9699246,5.295222
99.95234,86.22193,0.8019878,0.9699246,5.295222
100.0006,80.88168,0.8019878,0.9697599,5.288763
100.0513,87.11198,0.817069,0.9699246,5.295222
100.1024,130.9782,0.8623112,0.9699246,5.288763
100.1511,136.8271,0.9301745,0.9699246,5.295222
100.2017,130.2153,1.096063,0.9697599,5.288763
100.2512,123.6036,1.205399,0.9699246,5.295222
100.3016,119.2806,1.295883,0.9699246,5.288763
100.3526,113.686,1.352435,0.9697599,5.288763
100.4012,111.906,1.461771,0.9697599,5.288763
100.4519,111.7788,1.529634,0.9699246,5.288763
100.5006,111.7788,1.559795,0.9697599,5.288763
100.5516,102.8784,1.552255,0.9699246,5.288763
100.6016,98.6825,1.533404,0.9697599,5.295222
100.6517,96.13953,1.491932,0.9699246,5.288763
100.7026,94.35944,1.382596,0.9699246,5.288763
100.7511,91.81647,1.307193,0.9697599,5.288763
100.8014,89.90925,1.307193,0.9697599,5.288763
100.8521,87.87486,1.148846,0.9699246,5.288763
100.9017,83.55181,0.9980378,0.9699246,5.288763
100.9527,91.81647,0.8849323,0.9699246,5.288763
101.0008,118.8991,0.8623112,0.9699246,5.288763
101.0511,136.8271,0.8132991,0.9697599,5.282304
101.1026,128.6896,0.7492057,0.9699246,5.282304
101.1513,122.4593,0.7001936,0.9697599,5.288763
101.2023,115.0847,0.6511815,0.9697599,5.282304
101.2507,112.6688,0.6172491,0.9697599,5.282304
101.3015,111.7788,0.5531558,0.9699246,5.282304
101.3525,111.5245,0.4739826,0.9697599,5.282304
101.4017,104.4042,0.4174292,0.9699246,5.282304
101.4526,98.6825,0.3608771,0.9697599,5.275845
101.5011,98.04675,0.3080936,0.9699246,5.275845
101.5512,94.86804,0.2440003,0.9699246,5.275845
101.6022,91.05358,0.1120437,0.9699246,5.282304
101.6515,90.29069,-0.004831772,0.9697599,5.275845
101.7023,89.14634,-0.03499277,0.9699246,5.275845
101.7517,88.63776,-0.2461239,0.9697599,5.275845
101.8015,83.29751,-0.5326583,0.9699246,5.275845
101.8527,105.6757,-0.6269127,0.9697599,5.275845
101.9007,140.5144,-0.6608436,0.9699246,5.275845
101.952,140.0058,-0.6796947,0.9699246,5.275845
102.0011,134.2841,-0.7136271,0.9697599,5.269385
102.0511,129.071,-0.7324782,0.9699246,5.269385
102.1027,120.5521,-0.7362482,0.9700893,5.275845
102.1513,117.7548,-0.7362482,0.9699246,5.269385
102.202,116.4833,-0.7362482,0.9697599,5.269385
102.2507,115.0847,-0.7437881,0.9697599,5.275845
102.3013,112.9231,-0.751328,0.9700893,5.269385
102.3525,101.8612,-0.7550993,0.9700893,5.275845
102.4007,99.19109,-0.7437881,0.9697599,5.275845
102.4529,95.50377,-0.7324782,0.9699246,5.269385
102.5015,93.978,-0.7324782,0.9699246,5.275845
102.5511,92.96081,-0.7249369,0.9697599,5.275845
102.6018,91.43503,-0.6646149,0.9699246,5.275845
102.6509,89.0192,-0.6306826,0.9699246,5.275845
102.7026,84.95044,-0.6231427,0.9700893,5.282304
102.7509,89.90925,-0.5892103,0.9697599,5.275845
102.8007,116.4833,-0.4421739,0.9699246,5.275845
102.8525,138.6072,-0.1858006,0.9699246,5.275845
102.9009,135.4285,0.08565262,0.9699246,5.275845
102.9526,129.5796,0.2779326,0.9700893,5.275845
103.0013,126.0195,0.4061193,0.9697599,5.275845
103.0513,119.662,0.5531558,0.9699246,5.275845
103.1023,118.3905,0.6436402,0.9699246,5.275845
103.1509,117.3734,0.7152734,0.9699246,5.275845
103.2022,110.7616,0.783138,0.9700893,5.275845
103.2517,105.5485,0.8396901,0.9697599,5.275845
103.3009,103.387,0.9527956,0.9699246,5.282304
103.3521,100.4626,1.084752,0.9699246,5.282304
103.4009,98.80965,1.220479,0.9697599,5.275845
103.4518,96.01237,1.386368,0.9697599,5.275845
103.5012,94.86804,1.503243,0.9699246,5.275845
103.5513,92.57936,1.571107,0.9697599,5.275845
103.6025,87.62056,1.578646,0.9699246,5.275845
103.6511,87.49342,1.567337,0.9699246,5.269385
103.702,103.2598,1.593728,0.9699246,5.275845
103.7514,139.6244,1.623889,0.9699246,5.269385
103.8011,136.5728,1.612579,0.9697599,5.269385
103.8517,129.5796,1.578646,0.9699246,5.269385
103.9013,125.638,1.548485,0.9700893,5.269385
103.9519,117.6276,1.495703,0.9699246,5.269385
104.0007,115.339,1.42784,0.9697599,5.269385
104.0507,116.229,1.352435,0.9697599,5.269385
104.1027,113.4317,1.318504,0.9700893,5.269385
104.1511,106.1843,1.220479,0.9699246,5.262926
104.2024,103.0055,1.145076,0.9699246,5.269385
104.2512,100.2083,1.099833,0.9697599,5.262926
104.3009,98.80965,1.03574,0.9700893,5.262926
104.3527,96.52097,0.9188647,0.9697599,5.262926
104.4008,94.86804,0.8736225,0.9697599,5.262926
104.4522,92.83366,0.8547713,0.9697599,5.262926
104.5008,91.18073,0.7680569,0.9699246,5.262926
104.5507,87.49342,0.6851124,0.9699246,5.262926
104.6027,103.8956,0.6172491,0.9699246,5.262926
104.6518,139.2429,0.5380759,0.9697599,5.262926
104.7023,137.3357,0.4513615,0.9699246,5.262926
104.7518,131.614,0.3797269,0.9699246,5.256467
104.8015,125.7652,0.3194049,0.9697599,5.262926
104.8524,119.5349,0.2741627,0.9697599,5.256467
104.9015,116.7376,0.2326904,0.9699246,5.256467
104.9517,115.2118,0.176137,0.9699246,5.262926
105.0017,110.8888,0.119585,0.9699246,5.262926
105.0517,106.1843,-0.01237167,0.9699246,5.269385
105.1021,101.8612,-0.1217072,0.9699246,5.262926
105.1513,99.06393,-0.1669494,0.9699246,5.262926
105.2027,95.50377,-0.2121916,0.9699246,5.262926
105.2512,94.10515,-0.3667693,0.9699246,5.262926
105.3011,92.83366,-0.4233228,0.9700893,5.262926
105.3524,91.56216,-0.3554595,0.9699246,5.262926
105.4008,90.67213,-0.3893904,0.9697599,5.256467
105.4523,85.20473,-0.5590494,0.9697599,5.262926
105.5008,84.82329,-0.6382225,0.9697599,5.256467
105.5514,86.34908,-0.6683849,0.9697599,5.256467
105.6024,141.023,-0.6834647,0.9697599,5.256467
105.6511,137.2085,-0.6947759,0.9697599,5.256467
105.7018,132.504,-0.717397,0.9699246,5.256467
105.7517,126.9095,-0.721167,0.9699246,5.256467
105.8016,120.1706,-0.717397,0.9699246,5.256467
105.8528,118.1362,-0.6985459,0.9699246,5.256467
105.9013,116.4833,-0.6721548,0.9699246,5.256467
105.9529,109.363,-0.6269127,0.9699246,5.256467
106.0011,105.6757,-0.5062659,0.9697599,5.256467
106.0509,101.7341,-0.268745,0.9699246,5.256467
106.1021,98.55534,-0.04253406,0.9699246,5.262926
106.1508,96.52097,0.2440003,0.9697599,5.256467
106.2018,93.2151,0.3194049,0.9699246,5.256467
106.2515,91.43503,0.4551315,0.9697599,5.256467
106.3013,89.90925,0.6285604,0.9699246,5.256467
106.3523,88.7649,0.6964236,0.9699246,5.256467
106.4008,85.96764,0.7077335,0.9697599,5.256467
106.4518,84.0604,0.7228147,0.9699246,5.256467
106.5015,90.29069,0.7567456,0.9699246,5.256467
106.5518,126.7823,0.8095291,0.9699246,5.256467
106.6018,136.3185,0.8321502,0.9697599,5.250008
106.6517,129.3253,0.9113234,0.9697599,5.256467
106.7028,126.2737,1.073442,0.9699246,5.250008
106.7511,119.2806,1.122455,0.9697599,5.250008
106.8012,116.8647,1.182777,0.9697599,5.250008
106.8521,115.339,1.299653,0.9699246,5.250008
106.9008,114.5761,1.356205,0.9699246,5.250008
106.9523,106.4386,1.43161,0.9697599,5.250008
107.0008,103.387,1.484392,0.9697599,5.250008
107.0508,99.95398,1.556025,0.9699246,5.250008
107.1026,97.66531,1.616349,0.9699246,5.243549
107.1508,96.13953,1.623889,0.9697599,5.243549
107.2025,92.57936,1.578646,0.9699246,5.243549
107.2511,91.05358,1.552255,0.9697599,5.243549
107.3013,89.5278,1.548485,0.9699246,5.243549
107.352,86.73053,1.412759,0.9699246,5.243549
107.4008,83.29751,1.318504,0.9697599,5.243549
107.4528,104.4042,1.197858,0.9699246,5.243549
107.5016,136.0642,1.148846,0.9699246,5.243549
107.5508,139.2429,1.118685,0.9699246,5.237089
107.6021,126.1466,1.065901,0.9697599,5.237089
107.6515,123.2222,0.9791867,0.9697599,5.243549
107.7024,115.4661,0.9414858,0.9697599,5.243549
107.7508,113.3046,0.9000135,0.9697599,5.243549
107.8018,112.5417,0.820839,0.9697599,5.243549
107.8525,112.5417,0.7680569,0.9699246,5.243549
107.9019,102.8784,0.7529757,0.9700893,5.237089
107.9523,98.9368,0.7228147,0.9699246,5.243549
108.0018,96.52097,0.7001936,0.9697599,5.243549
108.0513,95.24948,0.6775725,0.9697599,5.243549
108.1021,92.19792,0.6021679,0.9699246,5.243549
108.1515,90.67213,0.5003737,0.9697599,5.243549
108.202,89.0192,0.4664413,0.9697599,5.243549
108.2508,87.23911,0.4815225,0.9699246,5.237089
108.3008,85.71333,0.3194049,0.9697599,5.243549
108.3519,82.53461,0.02532923,0.9697599,5.237089
108.4016,104.277,-0.1820306,0.9699246,5.237089
108.4523,141.913,-0.2121916,0.9697599,5.237089
108.5011,140.2601,-0.298906,0.9699246,5.23063
108.5514,131.614,-0.4572537,0.9699246,5.237089
108.6026,128.4353,-0.5100372,0.9699246,5.23063
108.6515,121.0607,-0.5401982,0.9699246,5.23063
108.7021,117.119,-0.5703592,0.9699246,5.237089
108.7514,116.229,-0.5892103,0.9699246,5.23063
108.8008,114.4489,-0.6042916,0.9699246,5.23063
108.8523,105.1671,-0.6156014,0.9699246,5.23063
108.9012,101.9884,-0.6269127,0.9699246,5.23063
108.952,98.1739,-0.6269127,0.9699246,5.23063
109.0007,96.77527,-0.6231427,0.9697599,5.23063
109.0511,93.978,-0.6231427,0.9697599,5.23063
109.1025,91.18073,-0.6344525,0.9697599,5.23063
109.1508,89.90925,-0.6344525,0.9697599,5.23063
109.2018,87.36626,-0.6080615,0.9697599,5.23063
109.2518,85.84048,-0.6042916,0.9697599,5.23063
109.3014,81.77173,-0.6457638,0.9699246,5.23063
109.3525,97.15671,-0.6796947,0.9699246,5.237089
109.4008,136.1913,-0.6834647,0.9697599,5.23063
109.4518,139.6244,-0.6759248,0.9699246,5.23063
109.5018,137.2085,-0.6759248,0.9699246,5.23063
109.5516,128.9439,-0.6834647,0.9697599,5.23063
109.6027,122.8407,-0.6646149,0.9699246,5.237089
109.6509,118.3905,-0.5892103,0.9697599,5.23063
109.7021,116.8647,-0.498726,0.9697599,5.23063
109.7517,115.4661,-0.2649751,0.9697599,5.23063
109.8016,110.5073,-0.04253406,0.9697599,5.23063
109.8529,103.0055,0.2741627,0.9699246,5.23063
109.9012,98.9368,0.3834982,0.9699246,5.23063
109.9528,96.90242,0.5531558,0.9699246,5.23063
110.0008,94.10515,0.6511815,0.9697599,5.23063
110.0513,92.7065,0.7077335,0.9697599,5.23063
110.1023,90.54498,0.7454358,0.9697599,5.23063
110.1509,88.7649,0.8019878,0.9699246,5.23063
110.2018,86.85767,0.8585413,0.9699246,5.23063
110.2517,83.55181,0.8585413,0.9697599,5.23063
110.3014,80.88168,0.8698511,0.9699246,5.23063
110.3524,100.4626,0.9264045,0.9699246,5.23063
110.4019,139.3701,0.9678768,0.9697599,5.23063
110.4518,138.8615,1.054591,0.9697599,5.23063
110.5013,130.5968,1.160155,0.9699246,5.23063
110.5512,127.7995,1.273262,0.9699246,5.23063
110.6021,117.3734,1.318504,0.9699246,5.23063
110.6514,115.5933,1.378826,0.9697599,5.23063
110.7029,114.1946,1.476852,0.9699246,5.23063
110.7515,113.8132,1.495703,0.9699246,5.23063
110.8014,105.2942,1.480622,0.9699246,5.23063
110.8519,101.3526,1.42784,0.9697599,5.224171
110.9012,97.9196,1.359975,0.9699246,5.23063
110.9529,95.75809,1.326044,0.9697599,5.23063
111.0012,93.978,1.265721,0.9697599,5.224171
111.0508,90.54498,1.145076,0.9697599,5.224171
111.102,89.14634,1.111143,0.9699246,5.23063
111.1517,87.49342,1.114913,0.9699246,5.23063
111.2024,85.96764,1.020659,0.9699246,5.23063
111.2514,81.39028,0.8396901,0.9697599,5.224171
111.3013,82.40748,0.8095291,0.9699246,5.224171
111.3522,115.7204,0.7567456,0.9697599,5.224171
111.4018,139.4972,0.7341245,0.9699246,5.224171
111.4518,129.1982,0.6964236,0.9699246,5.224171
111.5018,125.7652,0.6285604,0.9699246,5.224171
111.5508,116.229,0.5757769,0.9697599,5.224171
111.6023,114.5761,0.5418459,0.9699246,5.224171
111.651,114.1946,0.4664413,0.9697599,5.224171
111.7022,112.6688,0.4249691,0.9699246,5.217712
111.7519,104.0227,0.3759569,0.9699246,5.217712
111.8013,99.69969,0.3344847,0.9697599,5.217712
111.8523,96.52097,0.2741627,0.9798071,5.217712
111.9014,93.59654,0.2326904,0.9799718,5.217712
111.9526,92.19792,0.1610572,0.9798071,5.217712
112.001,89.65494,-0.004831772,0.9798071,5.217712
112.051,87.87486,-0.2121916,0.9799718,5.217712
112.1023,87.11198,-0.2046517,0.9798071,5.217712
112.151,85.07759,-0.2310427,0.9798071,5.217712
112.2021,80.24594,-0.5138072,0.9799718,5.211253
112.2515,85.84048,-0.6419938,0.9798071,5.211253
112.3013,121.4421,-0.6910059,0.9798071,5.211253
112.3527,142.8031,-0.721167,0.9798071,5.211253
112.401,139.1158,-0.7400181,0.9796425,5.211253
112.4525,128.8167,-0.7701791,0.9798071,5.211253
112.5013,127.0366,-0.7890303,0.9799718,5.211253
112.551,118.8991,-0.7890303,0.9798071,5.211253
112.6027,115.0847,-0.7777204,0.9798071,5.204794
112.651,113.3046,-0.7777204,0.9798071,5.204794
112.7019,106.1843,-0.7550993,0.9799718,5.204794
112.7518,103.0055,-0.7400181,0.9798071,5.204794
112.8011,98.80965,-0.7324782,0.9798071,5.204794
112.8529,94.61374,-0.7060858,0.9697599,5.204794
112.9008,92.19792,-0.6683849,0.9699246,5.204794
112.952,90.41783,-0.6269127,0.9699246,5.198335
113.0019,89.2735,-0.5439681,0.9697599,5.198335
113.0514,86.98483,-0.3177572,0.9697599,5.198335
113.1026,85.20473,0.01778932,0.9699246,5.198335
113.1513,84.569,0.2326904,0.9697599,5.198335
113.2026,79.48306,0.2703913,0.9697599,5.198335
113.2512,84.82329,0.3646471,0.9697599,5.198335
113.3016,123.4765,0.5229948,0.9699246,5.198335
113.3527,139.7515,0.6172491,0.9699246,5.198335
113.4012,133.2669,0.6624913,0.9697599,5.191875
113.452,126.9095,0.6926523,0.9697599,5.191875
113.5008,124.6208,0.7416658,0.9697599,5.191875
113.5514,117.6276,0.817069,0.9697599,5.191875
113.6025,114.9575,0.9113234,0.9699246,5.191875
113.6518,114.1946,0.9942678,0.9697599,5.191875
113.7026,106.4386,1.088522,0.9699246,5.191875
113.752,101.6069,1.133764,0.9699246,5.191875
113.8016,98.1739,1.216709,0.9697599,5.185416
113.8528,95.24948,1.337354,0.9799718,5.191875
113.9016,94.86804,1.393908,0.9798071,5.191875
113.9526,92.19792,1.454231,0.9798071,5.185416
114.0019,90.79928,1.552255,0.9798071,5.185416
114.0518,89.14634,1.597498,0.9796425,5.185416
114.1029,86.73053,1.582416,0.9798071,5.185416
114.1514,81.51743,1.473082,0.9798071,5.185416
114.203,86.98483,1.382596,0.9796425,5.185416
114.2514,112.796,1.348665,0.9798071,5.178957
114.3014,138.9886,1.23933,0.9798071,5.185416
114.3526,128.4353,1.156385,0.9796425,5.178957
114.4011,122.3321,1.111143,0.9799718,5.185416
114.4527,116.229,1.073442,0.9798071,5.178957
114.5015,112.5417,1.0282,0.9798071,5.178957
114.5513,112.0331,0.9904979,0.9798071,5.178957
114.6024,111.3974,0.9301745,0.9798071,5.178957
114.6516,103.1327,0.8510014,0.9798071,5.178957
114.7027,100.3354,0.7944479,0.9796425,5.178957
114.7511,97.02956,0.7680569,0.9796425,5.178957
114.801,94.35944,0.7492057,0.9798071,5.178957
114.8523,92.19792,0.7077335,0.9699246,5.178957
114.9018,90.67213,0.6361002,0.9699246,5.172498
114.953,88.7649,0.5418459,0.9699246,5.178957
115.0015,86.47623,0.5418459,0.9697599,5.178957
115.0509,85.33189,0.4438202,0.9697599,5.178957
115.1026,81.00883,0.1987581,0.9697599,5.178957
115.1511,81.77173,-0.1179373,0.9699246,5.172498
115.2029,126.1466,-0.2121916,0.9697599,5.172498
115.2517,141.6587,-0.268745,0.9699246,5.172498
115.3012,132.7583,-0.4157815,0.9700893,5.172498
115.352,127.1638,-0.4761049,0.9697599,5.172498
115.402,123.2222,-0.5401982,0.9699246,5.172498
115.4525,116.4833,-0.5628193,0.9697599,5.172498
115.5011,114.9575,-0.5892103,0.9699246,5.172498
115.5515,113.3046,-0.6231427,0.9699246,5.172498
115.6028,110.3802,-0.6457638,0.9699246,5.166039
115.6513,103.1327,-0.6570736,0.9697599,5.166039
115.702,98.04675,-0.6646149,0.9697599,5.172498
115.7517,96.13953,-0.6721548,0.9697599,5.166039
115.8013,93.46941,-0.6646149,0.9697599,5.166039
115.8522,90.29069,-0.6683849,0.9798071,5.166039
115.9018,88.63776,-0.6834647,0.9798071,5.172498
115.9531,87.36626,-0.6419938,0.9798071,5.172498
116.0019,85.71333,-0.5816705,0.9798071,5.172498
116.0516,81.39028,-0.5816705,0.9798071,5.166039
116.1028,79.61021,-0.5854404,0.9799718,5.166039
116.151,116.9919,-0.5477381,0.9796425,5.166039
116.2027,140.8958,-0.3629994,0.9799718,5.166039
116.2514,135.8099,-0.1480983,0.9799718,5.159579
116.3013,128.0538,0.1535159,0.9799718,5.166039
116.3524,123.6036,0.3080936,0.9798071,5.166039
116.4012,120.1706,0.4513615,0.9798071,5.159579
116.4519,114.5761,0.5795468,0.9798071,5.159579
116.5014,114.1946,0.6549514,0.9799718,5.159579
116.5511,114.1946,0.7115034,0.9798071,5.159579
116.603,105.5485,0.7755968,0.9798071,5.166039
116.6511,101.4798,0.8359202,0.9798071,5.166039
116.703,98.04675,0.8736225,0.9798071,5.166039
116.7517,95.75809,0.9980378,0.9798071,5.159579
116.8017,93.34225,1.058361,0.9798071,5.159579
116.852,91.56216,1.111143,0.9798071,5.159579
116.9012,89.5278,1.224249,0.9798071,5.159579
116.9522,88.00201,1.363747,0.9798071,5.159579
117.0011,84.95044,1.378826,0.9796425,5.159579
117.0521,81.00883,1.371287,0.9798071,5.159579
117.1028,86.73053,1.371287,0.9798071,5.15312
117.1516,114.3218,1.401448,0.9796425,5.15312
117.2021,138.9886,1.420299,0.9798071,5.15312
117.2511,128.181,1.476852,0.9798071,5.15312
117.3011,123.2222,1.469311,0.9799718,5.15312
117.3521,116.9919,1.405218,0.9799718,5.15312
117.402,112.5417,1.337354,0.9798071,5.146661
117.453,112.1602,1.288342,0.9799718,5.15312
117.5012,113.4317,1.254411,0.9798071,5.146661
117.5517,105.2942,1.171467,0.9798071,5.146661
117.6024,102.2427,1.133764,0.9798071,5.146661
117.6512,97.66531,1.099833,0.9798071,5.146661
117.7021,95.37663,1.088522,0.9799718,5.140202
117.7519,92.96081,1.016889,0.9798071,5.146661
117.802,91.05358,0.9339445,0.9798071,5.146661
117.8531,89.78209,0.8736225,0.9798071,5.146661
117.9012,88.38345,0.8321502,0.9799718,5.140202
117.953,85.58618,0.7755968,0.9798071,5.140202
118.0012,81.77173,0.6587213,0.9798071,5.140202
118.0512,84.3147,0.5343046,0.9798071,5.133743
118.1031,111.0159,0.4249691,0.9796425,5.140202
118.1513,139.3701,0.3797269,0.9798071,5.133743
118.2025,133.9027,0.3005537,0.9798071,5.133743
118.2512,125.7652,0.2176092,0.9798071,5.133743
118.3016,120.9335,0.1648272,0.9799718,5.140202
118.3523,114.9575,0.1120437,0.9799718,5.133743
118.402,111.7788,-0.01614163,0.9798071,5.133743
118.4526,111.906,-0.1858006,0.9798071,5.140202
118.5021,107.71,-0.2612037,0.9798071,5.133743
118.5518,101.2255,-0.4044716,0.9799718,5.133743
118.603,97.53816,-0.4836448,0.9799718,5.133743
118.6511,95.37663,-0.4911861,0.9796425,5.133743
118.7029,92.57936,-0.528887,0.9798071,5.133743
118.7516,91.05358,-0.5967503,0.9798071,5.133743
118.8021,88.7649,-0.6231427,0.9799718,5.133743
118.853,86.73053,-0.5967503,0.9799718,5.133743
118.9017,85.96764,-0.6042916,0.9799718,5.133743
118.953,81.26313,-0.6947759,0.9799718,5.133743
119.0017,83.67896,-0.7777204,0.9798071,5.133743
119.0514,120.1706,-0.8003415,0.9798071,5.133743
119.102,139.6244,-0.8154213,0.9799718,5.127283
119.152,129.9611,-0.8380424,0.9798071,5.127283
119.202,127.9267,-0.8945959,0.9798071,5.127283
119.2513,122.5864,-0.9247568,0.9798071,5.127283
119.301,117.6276,-0.9059057,0.9799718,5.127283
119.3522,116.1019,-0.8644348,0.9798071,5.127283
119.4017,115.0847,-0.8041115,0.9798071,5.127283
119.4527,108.7272,-0.7287069,0.9798071,5.127283
119.502,106.82,-0.6683849,0.9798071,5.127283
119.5518,98.6825,-0.5364283,0.9699246,5.127283
119.6032,96.77527,-0.272515,0.9699246,5.127283
119.6518,94.2323,0.01024942,0.9697599,5.127283
119.7029,91.81647,0.2666214,0.9697599,5.127283
119.7511,90.67213,0.3834982,0.9699246,5.120825
119.8009,88.7649,0.564467,0.9697599,5.120825
119.8521,87.23911,0.6549514,0.9699246,5.127283
119.901,83.29751,0.6662613,0.9699246,5.127283
119.952,81.64457,0.6888824,0.9699246,5.120825
120.0017,100.0811,0.7228147,0.9699246,5.120825
120.0516,140.8958,0.783138,0.9697599,5.120825
120.1024,138.0986,0.8246089,0.9697599,5.120825
120.1511,127.4181,0.9565656,0.9697599,5.120825
120.2031,123.6036,1.054591,0.9697599,5.127283
120.2518,119.4077,1.084752,0.9697599,5.120825
120.301,117.3734,1.148846,0.9699246,5.120825
120.3524,115.4661,1.254411,0.9697599,5.120825
120.4011,111.5245,1.314733,0.9697599,5.127283
120.4531,105.5485,1.42784,0.9697599,5.120825
120.5015,105.93,1.510783,0.9699246,5.127283
120.5518,101.7341,1.559795,0.9697599,5.127283
120.6027,97.28386,1.567337,0.9699246,5.127283
120.6516,95.75809,1.518324,0.9697599,5.127283
120.7028,92.96081,1.473082,0.9699246,5.127283
120.7518,91.05358,1.382596,0.9697599,5.127283
120.8018,90.03638,1.371287,0.9699246,5.127283
120.8526,87.11198,1.22802,0.9697599,5.127283
120.9013,83.67896,1.092292,0.9697599,5.127283
120.9521,88.25631,1.04705,0.9697599,5.127283
121.0012,138.8615,0.9641069,0.9697599,5.127283
121.051,133.5212,0.9075534,0.9697599,5.127283
121.102,124.748,0.8359202,0.9699246,5.127283
121.1512,121.6964,0.7529757,0.9697599,5.127283
121.2024,115.7204,0.7303545,0.9699246,5.127283
121.251,114.5761,0.7152734,0.9697599,5.127283
121.3016,114.1946,0.6511815,0.9697599,5.127283
121.353,114.1946,0.6059392,0.9697599,5.127283
121.4017,104.0227,0.5380759,0.9697599,5.127283
121.4522,99.82683,0.4626714,0.9699246,5.127283
121.502,99.19109,0.4362803,0.9699246,5.127283
121.5519,97.66531,0.4249691,0.9699246,5.127283
121.6031,94.86804,0.3646471,0.9697599,5.127283
121.6517,93.46941,0.3043237,0.9697599,5.127283
121.7027,91.81647,0.2967838,0.9697599,5.127283
121.752,89.90925,0.2967838,0.9697599,5.127283
121.801,85.33189,0.1233549,0.9697599,5.127283
121.8526,83.29751,-0.2348127,0.9697599,5.127283
121.901,100.3354,-0.3969303,0.9697599,5.120825
121.9527,142.1673,-0.4836448,0.9697599,5.120825
122.0014,138.0986,-0.5100372,0.9697599,5.127283
122.051,130.8511,-0.5854404,0.9697599,5.127283
122.1022,126.9095,-0.6646149,0.9697599,5.120825
122.1515,120.9335,-0.687236,0.9699246,5.120825
122.202,116.229,-0.6910059,0.9697599,5.127283
122.2512,115.0847,-0.7060858,0.9699246,5.120825
122.302,114.5761,-0.717397,0.9697599,5.120825
122.3524,105.1671,-0.7249369,0.9697599,5.120825
122.4014,102.6241,-0.721167,0.9697599,5.120825
122.452,100.2083,-0.717397,0.9697599,5.120825
122.5016,97.15671,-0.7060858,0.9699246,5.120825
122.5518,94.10515,-0.7023158,0.9697599,5.120825
122.6027,92.57936,-0.7060858,0.9699246,5.120825
122.6512,91.43503,-0.6683849,0.9699246,5.120825
122.7028,89.90925,-0.5779005,0.9697599,5.120825
122.7519,87.49342,-0.5590494,0.9697599,5.120825
122.8017,83.29751,-0.5515081,0.9697599,5.120825
122.853,89.90925,-0.4421739,0.9697599,5.120825
122.901,126.528,-0.2159615,0.9699246,5.120825
122.9523,136.4456,0.05172167,0.9697599,5.120825
123.0016,129.1982,0.2779326,0.9697599,5.114365
123.0514,125.638,0.3910381,0.9697599,5.114365
123.1027,122.8407,0.5418459,0.9697599,5.120825
123.1521,116.4833,0.6323303,0.9697599,5.120825
123.202,115.7204,0.6813424,0.9699246,5.120825
123.252,116.4833,0.7454358,0.9697599,5.120825
123.3015,107.8372,0.8095291,0.9699246,5.120825
123.3522,103.7684,0.8924722,0.9699246,5.120825
123.4015,101.0983,1.04705,0.9697599,5.114365
123.4524,98.42819,1.107373,0.9697599,5.120825
123.502,97.53816,1.148846,0.9697599,5.120825
123.5513,94.2323,1.220479,0.9699246,5.120825
123.6027,92.83366,1.326044,0.9699246,5.127283
123.6515,91.43503,1.43538,0.9697599,5.127283
123.702,89.90925,1.503243,0.9697599,5.127283
123.7512,85.20473,1.454231,0.9699246,5.127283
123.8012,90.92643,1.43915,0.9697599,5.127283
123.8524,108.7272,1.461771,0.9697599,5.127283
123.901,137.9714,1.461771,0.9697599,5.127283
123.952,127.5452,1.405218,0.9699246,5.133743
124.0012,124.3665,1.318504,0.9697599,5.133743
124.0516,120.1706,1.261951,0.9697599,5.140202
124.1027,116.6105,1.23556,0.9697599,5.140202
124.1515,115.4661,1.152616,0.9697599,5.140202
124.2029,114.9575,1.099833,0.9697599,5.140202
124.2512,113.3046,1.084752,0.9697599,5.140202
124.3021,104.7856,1.054591,0.9699246,5.140202
124.3521,100.3354,0.9980378,0.9697599,5.146661
124.4012,98.30104,0.9527956,0.9697599,5.146661
124.4522,95.24948,0.8660812,0.9697599,5.146661
124.5017,94.10515,0.7605169,0.9697599,5.146661
124.5521,92.45221,0.7190447,0.9798071,5.146661
124.6022,91.56216,0.7115034,0.9799718,5.146661
124.6511,89.90925,0.6474101,0.9798071,5.146661
124.7027,84.95044,0.3910381,0.9798071,5.15312
124.7522,84.44184,0.2590815,0.9799718,5.15312
124.8012,131.2325,0.1799069,0.9799718,5.146661
124.852,140.0058,0.09696386,0.9798071,5.15312
124.9017,134.2841,-0.08777626,0.9798071,5.15312
124.9527,128.3081,-0.2310427,0.9799718,5.15312
125.0017,124.3665,-0.2951361,0.9798071,5.15312
125.0515,118.1362,-0.4120115,0.9798071,5.15312
125.1021,116.229,-0.4911861,0.9798071,5.15312
125.1518,115.7204,-0.5401982,0.9798071,5.146661
125.2032,112.2874,-0.5779005,0.9798071,5.15312
125.2516,105.2942,-0.5892103,0.9798071,5.15312
125.3012,101.3526,-0.5967503,0.9798071,5.15312
125.3522,99.95398,-0.6156014,0.9798071,5.15312
125.4022,95.63092,-0.6080615,0.9798071,5.15312
125.4531,94.10515,-0.6344525,0.9798071,5.15312
125.5018,93.72369,-0.6533037,0.9798071,5.146661
125.5518,91.68932,-0.6306826,0.9697599,5.15312
